t_sec,brightness
0.0,94.23197916666666
0.033347115031238515,90.90358217592592
0.06669423006247703,87.2308024691358
0.10004134509371554,84.95297067901235
0.13338846012495406,82.89548804012345
0.16673557515619258,82.18408179012346
0.20008269018743108,81.41115547839506
0.2334298052186696,79.90201581790123
0.2667769202499081,78.7818923611111
0.3001240352811466,76.18353202160493
0.33347115031238517,74.93206983024692
0.36681826534362366,73.78526813271606
0.40016538037486216,73.35733796296296
0.4335124954061007,71.22127700617284
0.4668596104373392,70.77248263888889
0.5002067254685777,68.40986689814815
0.5335538404998162,67.23527584876543
0.5669009555310548,65.43296875
0.6002480705622932,64.2054050925926
0.6335951855935318,62.04460069444445
0.6669423006247703,60.608524305555555
0.7002894156560088,59.444710648148146
0.7336365306872473,58.38254436728395
0.7669836457184859,57.55521412037037
0.8003307607497243,56.927586805555556
0.8336778757809629,56.17559413580247
0.8670249908122014,55.68474537037037
0.90037210584344,55.3383912037037
0.9337192208746784,54.97940779320987
0.967066335905917,54.745233410493825
1.0004134509371554,54.60296682098765
1.033760565968394,54.52360725308642
1.0671076809996325,54.44362847222222
1.100454796030871,54.382974537037036
1.1338019110621096,54.44077932098765
1.1671490260933481,54.470478395061726
1.2004961411245865,54.540794753086416
1.233843256155825,54.58612075617284
1.2671903711870636,54.55607060185185
1.3005374862183021,54.44058449074074
1.3338846012495407,54.20569830246914
1.3672317162807792,54.2120563271605
1.4005788313120175,54.2788599537037
1.433925946343256,54.45015432098766
1.4672730613744946,54.708707561728396
1.5006201764057332,55.68596450617284
1.5339672914369717,56.15133294753086
1.5673144064682103,56.65774305555556
1.6006615214994486,57.26109182098765
1.6340086365306872,57.51877700617284
1.6673557515619257,57.76474922839506
1.7007028665931643,57.94822145061728
1.7340499816244028,58.213738425925925
1.7673970966556414,58.75165895061728
1.80074421168688,59.32880594135803
1.8340913267181183,59.510929783950616
1.8674384417493568,59.653587962962966
1.9007855567805954,59.74877700617284
1.934132671811834,59.759724151234565
1.9674797868430725,59.35276427469136
2.000826901874311,59.20477237654321
2.0341740169055496,58.93844328703704
2.067521131936788,58.96131944444444
2.1008682469680267,59.042681327160494
2.134215361999265,59.130260416666665
2.1675624770305033,59.17708719135803
2.200909592061742,59.28942901234568
2.2342567070929804,59.385306712962965
2.267603822124219,59.461977237654324
2.3009509371554575,59.466574074074074
2.3342980521866963,59.601278935185185
2.3676451672179346,59.69132523148148
2.400992282249173,59.83569444444444
2.4343393972804117,59.967395833333335
2.46768651231165,60.226639660493824
2.501033627342889,62.34802276234568
2.534380742374127,62.3977662037037
2.5677278574053655,62.41684606481481
2.6010749724366042,62.448358410493825
2.6344220874678426,62.4247762345679
2.6677692024990813,62.10092592592593
2.7011163175303197,61.511304012345676
2.7344634325615584,61.424295910493825
2.7678105475927968,61.39117476851852
2.801157662624035,61.41129436728395
2.834504777655274,61.42109953703704
2.867851892686512,61.67057484567901
2.901199007717751,61.82006365740741
2.9345461227489893,61.98582947530864
2.967893237780228,62.00353973765432
3.0012403528114664,62.12123070987654
3.0345874678427047,62.09109182098766
3.0679345828739435,62.25464891975309
3.101281697905182,62.49771412037037
3.1346288129364206,62.655399305555555
3.167975927967659,62.70222415123457
3.2013230429988973,62.76853009259259
3.234670158030136,62.787079475308644
3.2680172730613744,62.86971836419753
3.301364388092613,62.85918981481481
3.3347115031238515,62.905777391975306
3.3680586181550902,62.85968942901235
3.4014057331863286,62.01587384259259
3.434752848217567,61.83233603395062
3.4680999632488057,61.7800675154321
3.501447078280044,61.6216049382716
3.5347941933112828,61.58819637345679
3.568141308342521,61.4795987654321
3.60148842337376,61.50233024691358
3.634835538404998,61.42137538580247
3.6681826534362365,61.54632523148148
3.7015297684674753,61.51204282407407
3.7348768834987136,61.59093171296296
3.7682239985299524,61.68059799382716
3.8015711135611907,62.01755401234568
3.8349182285924295,62.210466820987655
3.868265343623668,62.46338155864198
3.901612458654906,62.61745756172839
3.934959573686145,62.7000250771605
3.9683066887173832,62.75427469135803
4.001653803748622,62.82373263888889
4.03500091877986,62.825763888888886
4.068348033811099,62.775549768518516
4.101695148842337,62.31962191358025
4.135042263873576,61.90134259259259
4.1683893789048145,61.817511574074075
4.201736493936053,61.815416666666664
4.235083608967291,61.92416859567901
4.26843072399853,62.0358024691358
4.301777839029769,62.219722222222224
4.335124954061007,62.351961805555554
4.368472069092245,62.446099537037036
4.401819184123484,62.485908564814814
4.435166299154723,62.53975115740741
4.468513414185961,62.60560185185185
4.5018605292172,62.75345486111111
4.535207644248438,63.0593537808642
4.568554759279676,63.14591820987654
4.601901874310915,63.13256944444444
4.635248989342154,63.13666859567901
4.668596104373393,63.13469328703704
4.7019432194046304,63.13241705246914
4.735290334435869,63.0621662808642
4.768637449467108,62.75282986111111
4.801984564498346,62.21164351851852
4.835331679529585,62.17159915123457
4.868678794560823,62.15953703703704
4.902025909592062,62.27068672839506
4.9353730246233,62.39452353395062
4.968720139654539,62.56960648148148
5.002067254685778,62.59796682098766
5.0354143697170155,62.629511959876545
5.068761484748254,62.60634259259259
5.102108599779493,62.617218364197534
5.135455714810731,62.61622492283951
5.16880282984197,62.626676311728396
5.2021499448732085,62.64353395061728
5.235497059904447,62.84921682098766
5.268844174935685,63.092268518518516
5.302191289966924,63.19920524691358
5.335538404998163,63.273398919753085
5.368885520029401,63.295835262345676
5.402232635060639,63.28710841049383
5.435579750091878,63.154947916666664
5.468926865123117,62.25881944444444
5.502273980154355,62.080162037037034
5.5356210951855935,61.969606481481485
5.568968210216832,61.96836805555556
5.60231532524807,61.96326195987654
5.635662440279309,62.071998456790126
5.669009555310548,62.277808641975305
5.7023566703417865,62.43291087962963
5.735703785373024,62.49762924382716
5.769050900404263,62.542118055555555
5.802398015435502,62.569077932098764
5.83574513046674,62.623587962962965
5.869092245497979,62.76057098765432
5.902439360529217,62.97580054012346
5.935786475560456,63.05961226851852
5.969133590591694,63.10364583333333
6.002480705622933,63.111412037037034
6.035827820654172,63.1167399691358
6.0691749356854094,63.104666280864194
6.102522050716648,63.03814236111111
6.135869165747887,62.25901234567901
6.169216280779126,62.083202160493826
6.202563395810364,61.95921875
6.235910510841602,61.89446566358025
6.269257625872841,61.86976466049383
6.302604740904079,61.87480516975309
6.335951855935318,61.92892361111111
6.369298970966557,62.00107445987654
6.4026460859977945,62.12825810185185
6.435993201029033,62.2241724537037
6.469340316060272,62.262318672839505
6.502687431091511,62.37064043209877
6.536034546122749,62.48855709876543
6.5693816611539875,62.66021412037037
6.602728776185226,62.74374807098766
6.636075891216464,62.85091049382716
6.669423006247703,62.938105709876545
6.702770121278942,63.01069637345679
6.7361172363101804,63.03817322530864
6.769464351341418,63.04517168209877
6.802811466372657,63.040619212962966
6.836158581403896,63.04604166666667
6.869505696435134,63.03137152777778
6.9028528114663725,62.894621913580245
6.936199926497611,61.9456462191358
6.96954704152885,61.695860339506176
7.002894156560088,61.590117669753084
7.036241271591327,61.600970293209876
7.0695883866225655,61.625474537037036
7.102935501653803,61.78394868827161
7.136282616685042,61.952399691358025
7.169629731716281,62.07553240740741
7.20297684674752,62.18175733024692
7.236323961778758,62.20738811728395
7.269671076809996,62.226471836419755
7.303018191841235,62.23784336419753
7.336365306872473,62.27675540123457
7.369712421903712,62.370499614197534
7.403059536934951,62.64528935185185
7.436406651966189,62.75666666666667
7.469753766997427,62.803088348765435
7.503100882028666,62.83302854938272
7.536447997059905,62.80913966049383
7.569795112091143,62.71197337962963
7.603142227122381,61.55664930555555
7.63648934215362,61.461915509259256
7.669836457184859,61.44461419753087
7.703183572216097,61.5265625
7.736530687247336,61.740262345679014
7.769877802278574,62.23444830246913
7.803224917309812,62.40787615740741
7.836572032341051,62.53237461419753
7.86991914737229,62.5871199845679
7.903266262403528,62.61176311728395
7.9366133774347665,62.62782986111111
7.969960492466005,62.65434799382716
8.003307607497243,62.695908564814815
8.036654722528482,62.81748456790123
8.07000183755972,63.09538966049383
8.10334895259096,63.18112075617284
8.136696067622198,63.21382716049383
8.170043182653437,63.201030092592596
8.203390297684674,63.18385030864197
8.236737412715913,63.09885223765432
8.270084527747152,62.4685686728395
8.30343164277839,62.13286844135803
8.336778757809629,61.93907793209876
8.370125872840868,61.86281828703704
8.403472987872107,61.82767361111111
8.436820102903344,61.83626543209876
8.470167217934582,61.9763387345679
8.503514332965821,62.1208024691358
8.53686144799706,62.22492091049383
8.570208563028299,62.4595524691358
8.603555678059537,62.91500192901235
8.636902793090776,63.29042438271605
8.670249908122013,63.51009837962963
8.703597023153252,63.77797260802469
8.73694413818449,63.81182484567901
8.77029125321573,63.78207947530864
8.803638368246968,63.749718364197534
8.836985483278207,63.68174575617284
8.870332598309446,63.513142361111115
8.903679713340683,62.856003086419754
8.937026828371922,62.2153549382716
8.97037394340316,61.971309799382716
9.0037210584344,61.813346836419754
9.037068173465638,61.750673225308645
9.070415288496877,61.688985339506175
9.103762403528115,61.71968557098766
9.137109518559352,61.79945794753086
9.170456633590591,62.3176774691358
9.20380374862183,62.876091820987654
9.237150863653069,63.23489197530864
9.270497978684308,63.31584297839506
9.303845093715546,63.29328317901235
9.337192208746785,63.24021990740741
9.370539323778022,63.21249614197531
9.403886438809261,63.10845486111111
9.4372335538405,63.056408179012344
9.470580668871738,62.9928337191358
9.503927783902977,62.93234375
9.537274898934216,62.86251157407408
9.570622013965455,62.77937885802469
9.603969128996692,62.587422839506175
9.63731624402793,62.35629436728395
9.67066335905917,62.26958719135803
9.704010474090408,62.233832947530864
9.737357589121647,62.22488811728395
9.770704704152886,62.29825424382716
9.804051819184124,62.50863040123457
9.837398934215361,62.56465084876543
9.8707460492466,62.49106674382716
9.904093164277839,62.230437885802466
9.937440279309078,62.10813271604938
9.970787394340316,62.02620177469136
10.004134509371555,62.00945987654321
10.037481624402792,62.292694830246916
10.070828739434031,62.47584490740741
10.10417585446527,62.728551311728395
10.137522969496509,62.84603009259259
10.170870084527747,62.806373456790126
10.204217199558986,62.74260802469136
10.237564314590225,62.583130787037035
10.270911429621462,62.06564236111111
10.3042585446527,61.98413580246913
10.33760565968394,61.93547646604938
10.370952774715178,61.97500385802469
10.404299889746417,61.98645447530864
10.437647004777656,62.06212962962963
10.470994119808894,62.50892939814815
10.504341234840131,62.81206790123457
10.53768834987137,62.92533564814815
10.571035464902609,63.00461612654321
10.604382579933848,63.07750578703704
10.637729694965087,63.02918209876543
10.671076809996325,62.942179783950614
10.704423925027564,62.86392939814815
10.737771040058801,62.80784915123457
10.77111815509004,62.82085262345679
10.804465270121279,62.870123456790125
10.837812385152517,62.98486304012346
10.871159500183756,63.20657600308642
10.904506615214995,63.230565200617285
10.937853730246234,62.83489197530864
10.97120084527747,62.192829861111115
11.00454796030871,61.85489197530864
11.037895075339948,61.61046875
11.071242190371187,61.44406442901234
11.104589305402426,61.40766010802469
11.137936420433665,61.53043595679012
11.171283535464903,61.835515046296294
11.20463065049614,62.04825038580247
11.23797776552738,62.12303819444445
11.271324880558618,62.23535686728395
11.304671995589857,62.34669945987655
11.338019110621095,62.53942708333334
11.371366225652334,62.71640817901235
11.404713340683573,62.96925154320988
11.43806045571481,63.12705439814815
11.471407570746049,63.24837384259259
11.504754685777288,63.45697916666666
11.538101800808526,63.72342399691358
11.571448915839765,63.90282986111111
11.604796030871004,63.914467592592594
11.638143145902243,63.77735146604938
11.67149026093348,63.5543962191358
11.704837375964718,63.42106481481481
11.738184490995957,63.3062712191358
11.771531606027196,63.22191936728395
11.804878721058435,63.14623070987654
11.838225836089673,63.09638888888889
11.871572951120912,63.06665316358025
11.90492006615215,63.0706462191358
11.938267181183388,63.114135802469136
11.971614296214627,63.30397762345679
12.004961411245866,63.59867862654321
12.038308526277104,63.91451195987654
12.071655641308343,64.23015625
12.105002756339582,64.36147955246913
12.138349871370819,64.42973765432099
12.171696986402058,64.56044174382716
12.205044101433296,64.7816724537037
12.238391216464535,65.49887538580246
12.271738331495774,65.51525462962962
12.305085446527013,65.2852874228395
12.338432561558252,64.63281442901234
12.371779676589489,64.35474151234568
12.405126791620727,64.14220679012345
12.438473906651966,64.07247106481482
12.471821021683205,64.0782388117284
12.505168136714444,64.31112461419752
12.538515251745682,64.43501543209877
12.571862366776921,64.50218942901235
12.605209481808158,64.51790316358024
12.638556596839397,64.51250385802469
12.671903711870636,64.54341049382717
12.705250826901874,64.86487847222222
12.738597941933113,65.35886188271606
12.771945056964352,65.9494637345679
12.805292171995589,66.37809413580247
12.838639287026828,66.5453761574074
12.871986402058067,66.5685300925926
12.905333517089305,66.51101273148149
12.938680632120544,66.13563850308643
12.972027747151783,64.95137345679012
13.005374862183022,64.38646604938272
13.038721977214259,64.24123842592593
13.072069092245497,64.13913580246914
13.105416207276736,64.15576195987654
13.138763322307975,64.22741898148148
13.172110437339214,64.30503086419753
13.205457552370452,64.3216049382716
13.238804667401691,64.345362654321
13.272151782432928,64.34458333333333
13.305498897464167,64.34375192901234
13.338846012495406,64.3324787808642
13.372193127526645,64.36288773148148
13.405540242557883,64.37588348765432
13.438887357589122,64.40180169753087
13.472234472620361,64.44075038580247
13.505581587651598,64.45366319444445
13.538928702682837,64.43268518518518
13.572275817714075,64.22778549382716
13.605622932745314,63.8047337962963
13.638970047776553,63.67602816358025
13.672317162807792,63.62495177469136
13.70566427783903,63.65014853395062
13.739011392870268,63.68788580246913
13.772358507901506,63.8745524691358
13.805705622932745,64.08255594135802
13.839052737963984,64.31457754629629
13.872399852995223,64.53132330246913
13.905746968026461,64.84351273148148
13.9390940830577,65.13742669753087
13.972441198088937,65.54843557098765
14.005788313120176,65.80274112654321
14.039135428151415,66.01783179012345
14.072482543182653,66.27649884259259
14.105829658213892,66.73106288580247
14.139176773245131,66.76155864197531
14.17252388827637,66.60898341049382
14.205871003307607,65.84193865740741
14.239218118338846,65.52055555555556
14.272565233370084,65.32305555555556
14.305912348401323,65.24879436728395
14.339259463432562,65.19400655864197
14.3726065784638,65.25359760802469
14.40595369349504,65.32287808641975
14.439300808526276,65.43024112654321
14.472647923557515,65.53762731481481
14.505995038588754,65.75556134259259
14.539342153619993,65.97487461419753
14.572689268651231,66.1560474537037
14.60603638368247,66.21130401234568
14.639383498713709,66.19097608024691
14.672730613744946,66.12766589506172
14.706077728776185,65.95285108024692
14.739424843807424,65.79713541666666
14.772771958838662,65.55625
14.806119073869901,64.87192129629629
14.83946618890114,64.64141396604938
14.872813303932379,64.46732060185185
14.906160418963616,64.43087384259259
14.939507533994854,64.4348688271605
14.972854649026093,64.5017399691358
15.006201764057332,64.59759452160493
15.03954887908857,64.71004822530864
15.07289599411981,64.79186921296296
15.106243109151048,64.90512924382716
15.139590224182285,65.03325231481482
15.172937339213524,65.14918402777778
15.206284454244763,65.27963155864198
15.239631569276002,65.46132523148148
15.27297868430724,65.58526427469135
15.30632579933848,65.64098958333334
15.339672914369718,65.66926311728395
15.373020029400955,65.65418981481481
15.406367144432194,65.64139274691358
15.439714259463432,65.54263310185185
15.473061374494671,65.06648148148147
15.50640848952591,64.87960455246913
15.539755604557149,64.74967978395061
15.573102719588388,64.73986111111111
15.606449834619625,64.73652391975308
15.639796949650863,64.85487461419753
15.673144064682102,65.00988811728395
15.70649117971334,65.16685763888889
15.73983829474458,65.29104938271605
15.773185409775818,65.39374035493827
15.806532524807055,65.45525848765432
15.839879639838294,65.5970100308642
15.873226754869533,65.70766203703704
15.906573869900772,65.83269290123457
15.93992098493201,65.9716550925926
15.97326809996325,66.08919945987654
16.006615214994486,66.18094521604938
16.039962330025727,66.25479938271604
16.073309445056964,66.30367476851852
16.106656560088204,66.25793788580246
16.14000367511944,65.86234953703703
16.17335079015068,65.37918981481481
16.20669790518192,65.20897569444445
16.240045020213156,65.19204089506172
16.273392135244396,65.18737654320988
16.306739250275633,65.2927199074074
16.340086365306874,65.43487654320988
16.37343348033811,65.64371334876543
16.406780595369348,65.8024324845679
16.44012771040059,65.93276427469135
16.473474825431826,66.01075231481481
16.506821940463066,66.08008680555555
16.540169055494303,66.13590856481481
16.573516170525544,66.27466820987654
16.60686328555678,66.44531442901234
16.640210400588018,66.58031635802469
16.673557515619258,66.71043595679012
16.706904630650495,66.7851138117284
16.740251745681736,66.81974151234567
16.773598860712973,66.74981095679013
16.806945975744213,66.7028800154321
16.84029309077545,66.55467592592592
16.873640205806687,65.61259259259259
16.906987320837928,65.13304205246914
16.940334435869165,65.05351080246913
16.973681550900405,65.10164544753087
17.007028665931642,65.18702160493827
17.040375780962883,65.45910879629629
17.07372289599412,65.74341820987654
17.107070011025357,65.9646412037037
17.140417126056597,66.05835648148148
17.173764241087834,66.09674768518518
17.207111356119075,66.10120177469136
17.240458471150312,66.1750636574074
17.273805586181552,66.28658564814815
17.30715270121279,66.46686728395062
17.340499816244026,66.59061342592592
17.373846931275267,66.70095100308642
17.407194046306504,66.75414351851852
17.440541161337745,66.80237654320987
17.47388827636898,66.85566165123457
17.507235391400222,66.8904938271605
17.54058250643146,66.89004629629629
17.573929621462696,66.80369791666666
17.607276736493937,66.06518711419753
17.640623851525174,65.72315972222222
17.673970966556414,65.55506944444444
17.70731808158765,65.53372685185185
17.74066519661889,65.54155864197531
17.77401231165013,65.75518518518518
17.807359426681366,65.9294849537037
17.840706541712606,65.99053819444444
17.874053656743843,65.99180169753086
17.907400771775084,66.01747299382716
17.94074788680632,66.03632137345679
17.97409500183756,66.17315586419753
18.0074421168688,66.71592013888889
18.040789231900035,66.95198302469136
18.074136346931276,67.10845486111111
18.107483461962513,67.17787808641975
18.140830576993753,67.21540509259259
18.17417769202499,67.22352816358024
18.20752480705623,67.2116512345679
18.240871922087468,67.16441165123457
18.274219037118705,66.80573881172839
18.307566152149946,66.08405092592592
18.340913267181183,65.88147569444445
18.374260382212423,65.8355362654321
18.40760749724366,65.79396026234568
18.4409546122749,65.89383487654321
18.474301727306138,66.02123842592593
18.507648842337375,66.13125
18.540995957368615,66.18675540123456
18.574343072399852,66.18553240740741
18.607690187431093,66.15412422839506
18.64103730246233,66.17650655864198
18.67438441749357,66.1776948302469
18.707731532524807,66.36095293209877
18.741078647556044,66.6645949074074
18.774425762587285,66.79972993827161
18.807772877618522,66.87248456790124
18.841119992649762,66.94978395061729
18.874467107681,67.0420736882716
18.90781422271224,67.10106095679012
18.941161337743477,67.07403935185185
18.974508452774714,66.51292245370371
19.007855567805954,65.76889853395062
19.04120268283719,65.63561728395062
19.074549797868432,65.49262152777777
19.10789691289967,65.54859375
19.14124402793091,65.63880208333333
19.174591142962147,66.0080999228395
19.207938257993384,66.19561921296297
19.241285373024624,66.29868441358025
19.27463248805586,66.32658179012346
19.3079796030871,66.3222299382716
19.34132671811834,66.32913194444444
19.37467383314958,66.47520447530864
19.408020948180816,66.85821180555556
19.441368063212053,67.03910686728395
19.474715178243294,67.16148726851851
19.50806229327453,67.23358410493827
19.54140940830577,67.25992862654321
19.574756523337008,67.28424189814815
19.60810363836825,67.25515046296296
19.641450753399486,67.17742091049382
19.674797868430723,66.079737654321
19.708144983461963,65.83823881172839
19.7414920984932,65.65998842592593
19.77483921352444,65.70328703703704
19.808186328555678,65.86031442901235
19.84153344358692,66.4843788580247
19.874880558618155,66.77117669753086
19.908227673649392,66.81885995370371
19.941574788680633,66.80765239197531
19.97492190371187,66.78273148148148
20.00826901874311,66.7351774691358
20.041616133774347,66.7323225308642
20.074963248805584,66.72930362654321
20.108310363836825,66.82711033950618
20.141657478868062,66.87554591049383
20.175004593899303,66.94641203703704
20.20835170893054,67.00545910493827
20.24169882396178,67.10105516975308
20.275045938993017,67.1347762345679
20.308393054024254,67.10037037037037
20.341740169055495,66.1598900462963
20.37508728408673,65.58101080246914
20.408434399117972,65.297237654321
20.44178151414921,65.18195794753086
20.47512862918045,65.14562692901235
20.508475744211687,65.32913773148148
20.541822859242924,65.6737750771605
20.575169974274164,65.79831018518519
20.6085170893054,65.88768711419753
20.641864204336642,65.91863233024691
20.67521131936788,65.94347993827161
20.70855843439912,66.06425540123456
20.741905549430356,66.28999035493827
20.775252664461593,66.52664544753087
20.808599779492834,66.72454282407408
20.84194689452407,66.86547067901235
20.87529400955531,66.97761188271605
20.90864112458655,67.10513695987655
20.94198823961779,67.20134837962964
20.975335354649026,67.1563425925926
21.008682469680263,66.51780671296297
21.042029584711504,65.74052276234568
21.07537669974274,65.55521604938272
21.10872381477398,65.49827353395062
21.142070929805218,65.47244212962963
21.17541804483646,65.66378086419753
21.208765159867696,66.00724344135803
21.242112274898933,66.21623842592592
21.275459389930173,66.36049575617284
21.30880650496141,66.54889853395062
21.34215361999265,67.14390432098766
21.375500735023888,67.56771219135803
21.40884785005513,67.65622685185186
21.442194965086365,67.74139081790123
21.475542080117602,67.81853395061728
21.508889195148843,67.92420910493827
21.54223631018008,68.02522183641975
21.57558342521132,68.17501543209876
21.608930540242557,68.23193479938271
21.642277655273798,68.18758487654321
21.675624770305035,67.22842785493827
21.708971885336272,65.69214313271605
21.742319000367512,65.60875192901234
21.77566611539875,65.54224537037037
21.80901323042999,65.44903549382715
21.842360345461227,65.42757137345679
21.875707460492468,65.44130208333333
21.909054575523705,65.49322723765432
21.94240169055494,65.54599151234568
21.975748805586182,65.60351466049383
22.00909592061742,65.69359760802469
22.04244303564866,65.92414351851852
22.075790150679897,66.25107445987655
22.109137265711137,66.82077932098765
22.142484380742374,67.04635030864198
22.17583149577361,67.2230324074074
22.20917861080485,67.26120949074074
22.24252572583609,67.16607060185186
22.27587284086733,66.93028549382716
22.309219955898566,66.3274074074074
22.342567070929807,65.09548611111111
22.375914185961044,64.34138695987654
22.40926130099228,64.0533487654321
22.44260841602352,63.896136188271605
22.47595553105476,63.90787808641975
22.509302646086,64.13665895061729
22.542649761117236,65.01845293209877
22.575996876148476,65.24903549382717
22.609343991179713,65.34667438271605
22.64269110621095,65.31765046296296
22.67603822124219,65.22736304012345
22.709385336273428,65.22983603395062
22.74273245130467,65.29208719135802
22.776079566335905,65.74223765432099
22.809426681367146,66.10596643518518
22.842773796398383,66.29262731481481
22.87612091142962,66.41909915123456
22.90946802646086,66.48940200617284
22.942815141492098,66.55093942901235
22.976162256523338,66.48065586419753
23.009509371554575,65.58758680555556
23.042856486585816,64.86266589506172
23.076203601617053,64.77034722222223
23.10955071664829,64.88965084876543
23.14289783167953,65.12277006172839
23.176244946710767,65.48487847222222
23.209592061742008,65.73845486111111
23.242939176773245,65.84323688271606
23.276286291804485,65.77883680555556
23.309633406835722,65.71691550925927
23.34298052186696,65.64758680555556
23.3763276368982,65.64237847222222
23.409674751929437,65.62426890432099
23.443021866960677,65.65368441358025
23.476368981991914,65.66727044753087
23.509716097023155,65.79112268518519
23.543063212054392,66.29009837962963
23.57641032708563,66.62845486111111
23.60975744211687,66.70714891975308
23.643104557148106,66.66038580246914
23.676451672179347,66.56848186728395
23.709798787210584,66.47262924382716
23.743145902241825,66.37481095679013
23.77649301727306,66.376668595679
23.8098401323043,66.38204861111112
23.84318724733554,66.54795717592593
23.876534362366776,66.77381172839506
23.909881477398017,66.90090470679013
23.943228592429254,66.96763310185185
23.976575707460494,66.98155478395061
24.00992282249173,67.00416473765432
24.043269937522968,67.12338927469136
24.07661705255421,67.32065586419753
24.109964167585446,67.7960050154321
24.143311282616686,68.14433834876543
24.176658397647923,68.9550385802469
24.210005512679164,68.95148341049382
24.2433526277104,67.60001543209877
24.276699742741638,64.99708526234568
24.31004685777288,63.212978395061725
24.343393972804115,63.15680555555556
24.376741087835356,63.53066550925926
24.410088202866593,65.65801311728396
24.443435317897833,66.27858217592592
24.47678243292907,66.3681037808642
24.510129547960307,66.2514737654321
24.543476662991548,65.56257137345679
24.576823778022785,65.45457561728395
24.610170893054025,65.65309413580248
24.643518008085262,66.5013638117284
24.676865123116503,67.64460262345679
24.71021223814774,67.9543074845679
24.743559353178977,68.1343287037037
24.776906468210218,68.24628086419753
24.810253583241455,68.29409336419754
24.843600698272695,68.27808063271605
24.876947813303932,68.18945601851851
24.910294928335173,67.19327739197531
24.94364204336641,66.68647955246914
24.976989158397647,66.50066936728395
25.010336273428887,66.31919560185185
25.043683388460124,66.24990162037037
25.077030503491365,66.20991319444444
25.1103776185226,66.3594637345679
25.143724733553842,66.51858217592593
25.17707184858508,66.7537538580247
25.210418963616316,66.95341820987655
25.243766078647557,67.09673225308642
25.277113193678794,67.25187692901234
25.310460308710034,67.3505574845679
25.34380742374127,67.43457561728395
25.377154538772512,67.52479359567901
25.41050165380375,67.65771797839506
25.443848768834986,67.7901986882716
25.477195883866226,67.77134259259259
25.510542998897463,67.45177276234568
25.543890113928704,66.49950231481482
25.57723722895994,66.31551311728396
25.610584343991178,66.27199845679013
25.64393145902242,66.48996527777778
25.677278574053656,66.72053819444444
25.710625689084896,66.9576350308642
25.743972804116133,67.25295138888889
25.777319919147374,67.4222974537037
25.81066703417861,67.51975694444444
25.844014149209848,67.55831597222222
25.877361264241088,67.59766782407408
25.910708379272325,67.6580150462963
25.944055494303566,67.72615740740741
25.977402609334803,67.88677083333333
26.010749724366043,68.10881172839507
26.04409683939728,68.22950231481481
26.077443954428517,68.26704282407407
26.110791069459758,68.24924961419752
26.144138184490995,68.17633294753087
26.177485299522235,67.04072916666667
26.210832414553472,66.2143074845679
26.244179529584713,66.13295524691358
26.27752664461595,66.09190200617284
26.310873759647187,66.17630594135802
26.344220874678427,66.3853163580247
26.377567989709664,66.72925733024691
26.410915104740905,66.83464699074074
26.444262219772142,66.87050154320988
26.477609334803383,66.8992862654321
26.51095644983462,66.9328587962963
26.544303564865857,66.97197530864197
26.577650679897097,67.15422646604938
26.610997794928334,67.31017361111111
26.644344909959575,67.38126929012346
26.67769202499081,67.43626543209876
26.711039140022052,67.43616705246913
26.74438625505329,67.42868055555556
26.777733370084526,67.38359760802469
26.811080485115767,67.31629436728394
26.844427600147004,66.08063271604938
26.877774715178244,65.59530864197531
26.91112183020948,65.5116049382716
26.944468945240722,65.46248842592593
26.97781606027196,65.51991705246914
27.011163175303196,65.79251350308643
27.044510290334436,66.13287037037037
27.077857405365673,66.27846450617284
27.111204520396914,66.33997106481482
27.14455163542815,66.43323302469136
27.17789875045939,66.48652199074074
27.21124586549063,66.59786844135803
27.244592980521865,67.07515046296297
27.277940095553106,67.41891396604939
27.311287210584343,67.65645833333333
27.344634325615583,67.7647299382716
27.37798144064682,67.75263310185186
27.41132855567806,67.71214120370371
27.444675670709298,67.64412229938272
27.478022785740535,66.6837075617284
27.511369900771776,65.8490200617284
27.544717015803013,65.46984953703704
27.578064130834253,65.45100887345679
27.61141124586549,65.45923032407407
27.64475836089673,65.6718962191358
27.678105475927968,66.29115933641975
27.711452590959205,66.49987461419754
27.744799705990445,66.67936342592593
27.778146821021682,66.7711612654321
27.811493936052923,66.81733796296297
27.84484105108416,66.8767824074074
27.8781881661154,66.93237654320987
27.911535281146637,67.16932098765432
27.944882396177874,67.46611689814814
27.978229511209115,67.57725694444444
28.011576626240352,67.66921489197532
28.044923741271592,67.8313136574074
28.07827085630283,67.87896219135803
28.11161797133407,67.70741898148148
28.144965086365307,66.59657986111111
28.178312201396544,66.28064429012346
28.211659316427784,66.06654706790124
28.24500643145902,65.99325038580247
28.278353546490262,65.95803047839506
28.3117006615215,66.09931712962963
28.34504777655274,66.31656828703704
28.378394891583977,66.52721836419754
28.411742006615214,66.89917438271605
28.445089121646454,67.17800154320987
28.47843623667769,67.52497685185185
28.51178335170893,67.89059992283951
28.54513046674017,68.1673861882716
28.57847758177141,68.25713541666667
28.611824696802646,68.28152970679012
28.645171811833883,68.27369598765432
28.678518926865124,68.27657021604938
28.71186604189636,68.2597550154321
28.7452131569276,68.17351080246914
28.77856027195884,67.14825038580247
28.81190738699008,66.59667052469136
28.845254502021316,66.45533179012345
28.878601617052553,66.2767862654321
28.911948732083793,66.15679012345679
28.94529584711503,66.08183256172839
28.97864296214627,66.07573109567902
29.011990077177508,66.07304976851852
29.04533719220875,66.10183834876543
29.078684307239985,66.1236361882716
29.112031422271222,66.20495563271605
29.145378537302463,66.35598765432098
29.1787256523337,66.810625
29.21207276736494,66.96672453703704
29.245419882396178,67.19940972222223
29.278766997427418,67.44413194444445
29.312114112458655,67.68277970679013
29.345461227489892,67.78294560185185
29.378808342521133,67.71835455246914
29.41215545755237,66.53278549382716
29.44550257258361,65.88323688271605
29.478849687614847,65.77091820987654
29.512196802646088,65.76804976851852
29.545543917677325,65.79280478395061
29.57889103270856,66.16043981481481
29.612238147739802,66.45005015432099
29.64558526277104,66.60262924382717
29.67893237780228,66.73098186728394
29.712279492833517,66.8033024691358
29.745626607864757,66.85650270061728
29.778973722895994,66.99308063271604
29.81232083792723,67.1507175925926
29.845667952958472,67.41628279320987
29.87901506798971,67.61611304012345
29.91236218302095,67.7273186728395
29.945709298052186,67.81400462962964
29.979056413083427,67.86575810185185
30.012403528114664,67.83251929012346
30.0457506431459,66.93451388888889
30.07909775817714,66.09542631172839
30.11244487320838,65.97980709876543
30.14579198823962,65.92130015432099
30.179139103270856,65.97887924382717
30.212486218302097,66.16071566358025
30.245833333333334,66.44811535493827
30.27918044836457,66.63043595679012
30.31252756339581,66.7589525462963
30.345874678427048,66.88179976851852
30.37922179345829,67.00897955246914
30.412568908489526,67.13267361111112
30.445916023520766,67.40578896604939
30.479263138552003,67.7766087962963
30.51261025358324,67.91907214506173
30.54595736861448,68.03596257716049
30.579304483645718,68.11354166666666
30.61265159867696,68.19426118827161
30.645998713708195,68.27043209876543
30.679345828739436,68.23354166666667
30.712692943770673,67.43041087962963
30.74604005880191,66.58053819444444
30.77938717383315,66.38876543209877
30.812734288864387,66.32626157407407
30.846081403895628,66.3550212191358
30.879428518926865,66.53179205246913
30.912775633958105,67.02433641975308
30.946122748989342,67.26005401234568
30.97946986402058,67.40334104938272
31.01281697905182,67.54338348765432
31.046164094083057,67.58293595679012
31.079511209114298,67.6130324074074
31.112858324145535,67.67026427469136
31.146205439176775,67.74559027777778
31.179552554208012,67.89643325617284
31.21289966923925,68.1427237654321
31.24624678427049,68.30875578703704
31.279593899301727,68.40003858024691
31.312941014332967,68.45924768518519
31.346288129364204,68.48970679012346
31.37963524439544,68.40863425925926
31.41298235942668,67.30789930555555
31.44632947445792,66.92823109567901
31.47967658948916,66.8175424382716
31.513023704520396,66.81618055555556
31.546370819551637,66.84257523148148
31.579717934582874,67.07147955246914
31.61306504961411,67.31570601851851
31.64641216464535,67.34900270061729
31.67975927967659,67.29829089506173
31.71310639470783,67.16301890432099
31.746453509739066,67.11646026234568
31.779800624770306,67.13034722222223
31.813147739801543,67.63384837962963
31.84649485483278,68.4566550925926
31.87984196986402,68.76744984567901
31.913189084895258,68.91734182098766
31.9465361999265,69.07868634259259
31.979883314957736,69.18721064814815
32.01323042998897,69.26110532407408
32.04657754502021,69.18681327160493
32.079924660051454,67.98561535493828
32.11327177508269,66.97896219135802
32.14661889011393,66.7405150462963
32.17996600514517,66.60902199074074
32.21331312017641,66.50998842592593
32.24666023520764,66.61159529320987
32.28000735023888,67.03332561728395
32.31335446527012,67.0725
32.34670158030136,67.09557677469135
32.3800486953326,67.11523533950617
32.41339581036384,67.16081983024691
32.44674292539508,67.55579282407408
32.48009004042631,68.07529513888889
32.51343715545755,68.22326967592592
32.54678427048879,68.36524112654321
32.580131385520026,68.44840470679013
32.61347850055127,68.50476273148148
32.64682561558251,68.51109567901234
32.68017273061375,68.47496913580247
32.71351984564498,68.32792824074075
32.74686696067622,67.35461419753086
32.78021407570746,67.19227430555556
32.813561190738696,67.10673804012346
32.84690830576994,67.18040316358025
32.88025542080118,67.42670717592593
32.91360253583242,68.27470679012346
32.94694965086365,68.91590856481481
32.98029676589489,69.33591820987654
33.01364388092613,69.71816358024691
33.046990995957366,69.90524112654322
33.080338110988606,69.99661265432098
33.11368522601985,70.09758101851853
33.14703234105109,70.22027584876543
33.18037945608232,70.56310570987654
33.21372657111356,71.65349729938272
33.2470736861448,72.41102430555556
33.280420801176035,72.70169560185185
33.313767916207276,72.72164158950618
33.347115031238516,71.76491898148149
33.38046214626976,69.41474344135803
33.41380926130099,69.0236400462963
33.44715637633223,69.07905478395061
33.48050349136347,69.21573109567902
33.513850606394705,69.73843942901235
33.547197721425945,70.35343171296296
33.580544836457186,71.35488811728395
33.61389195148843,71.36409529320987
33.64723906651966,70.33005401234568
33.6805861815509,70.1604899691358
33.71393329658214,69.94118441358025
33.747280411613374,69.30929976851851
33.780627526644615,69.3293788580247
33.813974641675856,69.38161458333333
33.847321756707096,69.55719328703704
33.88066887173833,69.67951581790123
33.91401598676957,69.91025848765432
33.94736310180081,70.43542631172839
33.980710216832044,70.51362075617284
34.014057331863285,68.78691358024692
34.047404446894525,67.02801504629629
34.080751561925766,66.22576774691358
34.114098676957,65.82063850308641
34.14744579198824,65.65907407407407
34.18079290701948,65.65734567901235
34.214140022050714,65.86135416666667
34.247487137081954,66.32545910493828
34.280834252113195,66.44112654320988
34.314181367144435,66.61376543209876
34.34752848217567,66.83141782407408
34.38087559720691,68.37526041666666
34.41422271223815,69.09820216049383
34.44756982726938,69.57336033950617
34.480916942300624,70.31429012345679
34.514264057331864,71.05233024691358
34.547611172363105,71.21734953703704
34.58095828739434,71.23872685185185
34.61430540242558,71.09840277777778
34.64765251745682,70.85159143518518
34.68099963248805,70.33201195987654
34.71434674751929,68.6001774691358
34.747693862550534,65.86931905864198
34.781040977581775,65.56609953703703
34.81438809261301,66.96684413580248
34.84773520764425,66.95271026234568
34.88108232267549,66.26538966049382
34.91442943770672,65.40780671296297
34.94777655273796,65.12471836419753
34.981123667769204,64.78325038580248
35.014470782800444,64.4443113425926
35.04781789783168,64.34180169753087
35.08116501286292,64.34115354938271
35.11451212789416,64.51082561728396
35.14785924292539,65.18003279320988
35.18120635795663,65.63921875
35.21455347298787,66.24526813271605
35.247900588019114,66.70538773148148
35.28124770305035,67.25633101851852
35.31459481808159,67.26254822530865
35.34794193311283,66.90672646604938
35.38128904814406,65.68912229938272
35.4146361631753,64.08326581790124
35.44798327820654,63.33452739197531
35.48133039323778,63.58246141975309
35.51467750826902,64.12880015432098
35.54802462330026,64.86990162037037
35.5813717383315,65.48353973765433
35.61471885336273,66.50256558641975
35.64806596839397,67.77933449074074
35.68141308342521,69.1506037808642
35.71476019845645,70.18502507716049
35.74810731348769,70.91376157407407
35.78145442851893,71.27509645061728
35.81480154355017,71.24859182098766
35.8481486585814,70.84947145061729
35.88149577361264,70.4721662808642
35.91484288864388,69.86303047839506
35.94819000367512,68.55409336419753
35.981537118706356,67.69018904320987
36.0148842337376,66.85998649691358
36.04823134876884,66.72140432098766
36.08157846380007,66.65864390432098
36.11492557883131,65.95920717592593
36.14827269386255,65.45869405864198
36.18161980889379,65.3172588734568
36.214966923925026,65.40617476851853
36.248314038956266,65.80120177469136
36.28166115398751,66.58324266975309
36.31500826901874,67.79428626543209
36.34835538404998,69.84483024691357
36.38170249908122,70.00385802469135
36.41504961411246,70.02999807098766
36.448396729143695,70.06207947530864
36.481743844174936,70.12121334876544
36.51509095920618,70.13816358024691
36.54843807423741,70.11711805555555
36.58178518926865,70.02219521604938
36.61513230429989,69.91197530864197
36.64847941933113,69.72877700617283
36.681826534362365,69.56467013888889
36.715173649393606,69.48363233024692
36.748520764424846,69.39512731481481
36.78186787945608,68.76775848765432
36.81521499448732,67.91287229938271
36.84856210951856,67.68528935185185
36.8819092245498,67.55163194444444
36.915256339581035,67.56256558641975
36.948603454612275,67.65281057098765
36.981950569643516,67.91282021604938
37.01529768467475,68.22195794753087
37.04864479970599,68.78668595679012
37.08199191473723,69.20933641975309
37.11533902976847,69.64283564814815
37.148686144799704,70.8075
37.182033259830945,71.04703703703704
37.215380374862185,70.77806327160494
37.24872748989342,69.52682677469136
37.28207460492466,68.7556674382716
37.3154217199559,68.73712191358025
37.34876883498714,69.57687692901234
37.382115950018374,70.49386574074074
37.415463065049614,71.0160725308642
37.448810180080855,70.9896238425926
37.48215729511209,70.91115354938272
37.51550441014333,70.93347800925926
37.54885152517457,70.84508680555555
37.58219864020581,70.94687692901235
37.615545755237044,70.95027584876543
37.648892870268284,71.09585262345679
37.682239985299525,70.80166087962964
37.71558710033076,69.99716628086419
37.748934215362,68.39785686728395
37.78228133039324,67.21182098765432
37.81562844542448,66.99538194444445
37.84897556045571,67.34973572530865
37.882322675486954,67.82914351851852
37.915669790518194,68.14944637345678
37.94901690554943,68.5234587191358
37.98236402058067,68.71665895061729
38.01571113561191,68.8444637345679
38.04905825064315,68.86825231481481
38.08240536567438,68.80897183641976
38.11575248070562,68.7464274691358
38.149099595736864,68.66940586419753
38.1824467107681,68.46650655864198
38.21579382579934,68.01365933641975
38.24914094083058,67.70996913580247
38.28248805586182,67.68000964506173
38.31583517089305,67.76115740740741
38.34918228592429,67.99634452160494
38.382529400955534,68.81311342592592
38.41587651598677,69.43456983024691
38.44922363101801,70.06774691358025
38.48257074604925,70.1996875
38.51591786108049,70.26914737654322
38.54926497611172,70.03956404320988
38.58261209114296,69.56722029320987
38.6159592061742,69.34403356481481
38.64930632120544,69.2369849537037
38.68265343623668,69.16735918209876
38.71600055126792,69.1718074845679
38.74934766629916,68.27109182098765
38.78269478133039,67.98835069444445
38.81604189636163,67.95508101851851
38.84938901139287,67.95516396604938
38.882736126424106,67.89759259259259
38.91608324145535,67.79128086419753
38.94943035648659,67.52367283950618
38.98277747151783,66.95757908950617
39.01612458654906,66.95149691358024
39.0494717015803,67.13702739197531
39.08281881661154,67.5332388117284
39.116165931642776,67.91905478395061
39.149513046674016,68.16640432098765
39.18286016170526,68.41464313271605
39.2162072767365,68.62712577160494
39.24955439176773,69.26887152777778
39.28290150679897,70.01173418209876
39.31624862183021,69.99957561728395
39.349595736861446,69.71508101851852
39.382942851892686,68.46464699074075
39.41628996692393,68.29808449074073
39.44963708195517,68.25308256172839
39.4829841969864,68.21894868827161
39.51633131201764,68.45084104938272
39.54967842704888,68.85080054012346
39.583025542080115,69.24793595679013
39.616372657111356,69.37638310185186
39.649719772142596,69.46293402777778
39.68306688717384,69.73335455246914
39.71641400220507,71.16257137345679
39.74976111723631,72.15561342592592
39.78310823226755,72.78415702160494
39.816455347298785,72.63416473765432
39.849802462330025,71.65751543209876
39.883149577361266,71.24092592592592
39.9164966923925,71.01555362654321
39.94984380742374,70.54089313271605
39.98319092245498,69.5384548611111
40.01653803748622,69.1624151234568
40.049885152517454,68.9979726080247
40.083232267548695,68.85859953703704
40.116579382579935,68.78060570987654
40.14992649761117,68.69604166666667
40.18327361264241,68.6806037808642
40.21662072767365,69.24137345679013
40.24996784270489,69.33192515432098
40.283314957736124,69.3728337191358
40.316662072767365,69.4830362654321
40.350009187798605,69.54735725308642
40.38335630282984,69.60310185185185
40.41670341786108,69.63375771604939
40.45005053289232,69.7415200617284
40.48339764792356,69.80953125
40.516744762954794,69.86700810185185
40.550091877986034,69.89899884259259
40.583438993017275,68.78473765432099
40.61678610804851,67.73790702160494
40.65013322307975,67.46932098765433
40.68348033811099,67.47055169753087
40.71682745314223,67.88433641975308
40.75017456817346,68.40682098765433
40.783521683204704,68.87303819444445
40.816868798235944,69.09863425925926
40.85021591326718,69.25960648148148
40.88356302829842,70.0426099537037
40.91691014332966,71.25340663580246
40.9502572583609,72.26903549382716
40.98360437339213,72.30896026234568
41.01695148842337,72.14022955246914
41.050298603454614,71.46988811728394
41.08364571848585,71.18818287037037
41.11699283351709,71.05165702160494
41.15033994854833,70.98157214506173
41.18368706357957,69.64232638888889
41.2170341786108,69.11936149691358
41.25038129364204,68.28692901234568
41.283728408673284,68.2039023919753
41.31707552370452,68.24621720679012
41.35042263873576,68.8568287037037
41.383769753767,69.11478202160494
41.41711686879824,69.22386766975309
41.45046398382947,69.29847608024691
41.48381109886071,69.32862847222222
41.51715821389195,69.33109953703703
41.55050532892319,69.34153549382717
41.58385244395443,69.3558024691358
41.61719955898567,69.39717592592592
41.65054667401691,69.59131944444445
41.68389378904814,70.15099151234568
41.71724090407938,70.61253858024692
41.75058801911062,70.91616319444445
41.783935134141856,70.94990354938271
41.8172822491731,70.73004050925925
41.85062936420434,69.68084104938272
41.88397647923558,69.49064814814815
41.91732359426681,69.43335069444444
41.95067070929805,69.58656442901234
41.98401782432929,70.05400848765431
42.017364939360526,70.20481867283951
42.05071205439177,70.42515817901234
42.08405916942301,70.7299363425926
42.11740628445425,71.08590856481482
42.15075339948548,71.68918595679013
42.18410051451672,72.38804205246913
42.21744762954796,72.79259452160494
42.250794744579196,73.32625771604938
42.284141859610436,73.1552488425926
42.31748897464168,72.75608603395062
42.35083608967292,72.69829668209877
42.38418320470415,72.65550540123456
42.41753031973539,72.09838155864198
42.45087743476663,70.4064737654321
42.484224549797865,69.6459124228395
42.517571664829106,69.19886959876543
42.550918779860346,68.25837191358025
42.58426589489159,67.30486111111111
42.61761300992282,66.53994598765432
42.65096012495406,66.16125
42.6843072399853,67.05989969135803
42.717654355016535,67.16091820987654
42.751001470047775,66.96852816358025
42.784348585079016,66.73807677469136
42.81769570011026,66.39438657407408
42.85104281514149,66.12067515432099
42.88438993017273,65.96442322530864
42.91773704520397,66.06255401234569
42.951084160235204,66.99865547839507
42.984431275266445,67.26972800925925
43.017778390297686,67.0210513117284
43.051125505328926,66.17686921296297
43.08447262036016,64.93316165123457
43.1178197353914,63.781097608024695
43.15116685042264,63.06099922839506
43.184513965453874,63.3080999228395
43.217861080485115,64.49908179012345
43.251208195516355,65.98412422839506
43.284555310547596,66.6974363425926
43.31790242557883,66.68734567901235
43.35124954061007,66.56605516975308
43.38459665564131,66.48645640432099
43.417943770672544,66.66847222222222
43.451290885703784,66.90174382716049
43.484638000735025,67.90803433641975
43.517985115766265,68.6359375
43.5513322307975,68.83318672839506
43.58467934582874,68.7349826388889
43.61802646085998,68.35803819444445
43.65137357589121,68.2602237654321
43.684720690922454,68.20011766975308
43.718067805953694,68.22121141975309
43.751414920984935,68.29820023148149
43.78476203601617,68.51494984567901
43.81810915104741,68.87449074074074
43.85145626607865,69.47543402777778
43.88480338110988,69.75098186728395
43.91815049614112,70.16905671296297
43.951497611172364,70.39289158950618
43.984844726203605,70.62742283950617
44.01819184123484,70.788125
44.05153895626608,71.01134837962962
44.08488607129732,71.71060763888889
44.11823318632855,72.09451967592592
44.15158030135979,72.30873649691358
44.184927416391034,72.34483410493827
44.218274531422274,72.32925925925926
44.25162164645351,70.95942708333334
44.28496876148475,70.25673032407407
44.31831587651599,70.02498842592593
44.35166299154722,69.88485339506173
44.38501010657846,69.86490354938272
44.4183572216097,69.95981095679012
44.451704336640944,70.2661361882716
44.48505145167218,70.34240547839507
44.51839856670342,70.39237461419754
44.55174568173466,70.44080825617284
44.58509279676589,70.53326195987654
44.61843991179713,70.77136766975309
44.65178702682837,70.95614776234568
44.68513414185961,71.06321952160494
44.71848125689085,71.1826986882716
44.75182837192209,71.35598186728394
44.78517548695333,71.55206211419753
44.81852260198456,71.59173418209876
44.8518697170158,71.57025462962963
44.88521683204704,71.44304591049382
44.91856394707828,71.35298032407407
44.95191106210952,69.81471643518519
44.98525817714076,68.80391782407408
45.018605292172,68.49109760802469
45.05195240720323,68.3754899691358
45.08529952223447,68.3938888888889
45.11864663726571,68.83863618827161
45.15199375229695,69.1703587962963
45.185340867328186,69.33076581790124
45.21868798235943,69.4281674382716
45.25203509739067,69.46256172839506
45.2853822124219,69.57354745370371
45.31872932745314,69.50574845679013
45.35207644248438,69.44074845679012
45.38542355751562,69.36096064814815
45.418770672546856,69.27026813271605
45.452117787578096,69.19047646604939
45.48546490260934,69.11272183641975
45.51881201764057,69.09810570987655
45.55215913267181,69.01411458333334
45.58550624770305,68.91429591049383
45.61885336273429,68.6502951388889
45.652200477765525,67.90291473765433
45.685547592796766,66.18781828703703
45.71889470782801,65.72315972222222
45.75224182285924,65.45799961419753
45.78558893789048,65.34086805555556
45.81893605292172,65.53611689814815
45.85228316795296,65.82760609567902
45.885630282984195,66.05287615740741
45.918977398015436,66.27452739197531
45.952324513046676,66.48024884259259
45.98567162807791,66.61790702160494
46.01901874310915,66.76480516975309
46.05236585814039,66.9420736882716
46.08571297317163,67.02350115740741
46.119060088202865,67.0324074074074
46.152407203234105,67.03530671296296
46.185754318265346,66.93159722222222
46.21910143329658,66.8489949845679
46.25244854832782,66.79843364197531
46.28579566335906,66.75659722222223
46.3191427783903,66.5881963734568
46.352489893421534,65.61003279320988
46.385837008452775,64.92308834876543
46.419184123484015,64.57867862654321
46.45253123851525,64.48190200617285
46.48587835354649,64.42270447530865
46.51922546857773,64.43871720679013
46.55257258360897,64.50842592592592
46.585919698640204,64.56465470679012
46.619266813671445,64.59667438271605
46.652613928702685,64.6365412808642
46.68596104373392,64.62802083333334
46.71930815876516,64.64571566358025
46.7526552737964,64.66115547839506
46.78600238882764,64.7318962191358
46.819349503858874,65.02625578703703
46.852696618890114,65.26097029320988
46.886043733921355,65.38048996913581
46.91939084895259,65.40934606481481
46.95273796398383,65.39954668209876
46.98608507901507,65.3498900462963
47.01943219404631,65.19666087962963
47.05277930907754,63.84782986111111
47.086126424108784,63.66394483024691
47.119473539140024,63.60515046296296
47.15282065417126,63.64018711419753
47.1861677692025,63.96194058641975
47.21951488423374,64.14424189814815
47.25286199926498,64.20561921296296
47.28620911429621,64.21528356481481
47.31955622932745,64.19496913580247
47.352903344358694,64.13213155864197
47.38625045938993,64.18616512345679
47.41959757442117,64.27733410493828
47.45294468945241,64.45517554012346
47.48629180448365,64.78199074074074
47.51963891951488,64.84938078703703
47.55298603454612,64.83375771604938
47.586333149577364,64.80059220679013
47.6196802646086,64.72713927469135
47.65302737963984,64.68445987654322
47.68637449467108,64.51581404320987
47.71972160970232,64.08523726851851
47.75306872473355,63.76052662037037
47.78641583976479,63.62280285493827
47.81976295479603,63.49567322530864
47.85311006982727,63.45771026234568
47.88645718485851,63.41546875
47.91980429988975,63.39818094135803
47.95315141492099,63.3838175154321
47.98649852995222,63.39837191358025
48.01984564498346,63.42886574074074
48.0531927600147,63.55422839506173
48.086539875045936,63.72014853395062
48.11988699007718,63.89335648148148
48.15323410510842,64.03050733024692
48.18658122013966,64.14625578703703
48.21992833517089,64.23368441358025
48.25327545020213,64.33865162037037
48.28662256523337,64.42408757716049
48.319969680264606,64.47137538580247
48.35331679529585,64.42078510802469
48.38666391032709,64.3296199845679
48.42001102535833,64.20381751543209
48.45335814038956,64.01222800925926
48.4867052554208,63.87644483024691
48.52005237045204,63.865001929012344
48.553399485483276,63.8600212191358
48.586746600514516,63.9181674382716
48.62009371554576,64.037393904321
48.653440830577,64.14413580246914
48.68678794560823,64.1776350308642
48.72013506063947,64.22017361111111
48.75348217567071,64.2201311728395
48.786829290701945,64.20749614197531
48.820176405733186,64.16481674382716
48.853523520764426,64.17029513888889
48.88687063579567,64.1603800154321
48.9202177508269,64.1742399691358
48.95356486585814,64.18778163580247
48.98691198088938,64.16640046296297
49.020259095920615,64.11778356481481
49.053606210951855,63.95397762345679
49.086953325983096,63.312282021604936
49.12030044101434,63.19611304012346
49.15364755604557,63.09426697530864
49.18699467107681,63.061020447530865
49.22034178610805,63.04645061728395
49.253688901139284,63.08272762345679
49.287036016170525,63.13097800925926
49.320383131201766,63.17641203703704
49.353730246233006,63.23494405864197
49.38707736126424,63.190542052469134
49.42042447629548,63.155385802469134
49.45377159132672,63.16089313271605
49.487118706357954,63.163339120370374
49.520465821389195,63.24957175925926
49.553812936420435,63.30186535493827
49.587160051451676,63.316493055555554
49.62050716648291,63.30179591049383
49.65385428151415,63.2750675154321
49.68720139654539,63.19785108024691
49.720548511576624,63.114693287037035
49.753895626607864,63.05655864197531
49.787242741639105,63.06374807098766
49.820589856670345,63.09644868827161
49.85393697170158,63.241471836419755
49.88728408673282,63.4773225308642
49.92063120176406,63.46319830246914
49.95397831679529,63.36021026234568
49.987325431826534,63.166867283950616
50.020672546857774,62.97258680555556
50.054019661889015,62.870310570987655
50.08736677692025,62.83919367283951
50.12071389195149,62.863879243827164
50.15406100698273,62.93544560185185
50.18740812201396,63.098001543209875
50.2207552370452,63.35868827160494
50.254102352076444,63.56277006172839
50.287449467107685,63.69777006172839
50.32079658213892,63.60548611111111
50.35414369717016,63.436909722222225
50.3874908122014,63.289909336419754
50.42083792723263,63.16246913580247
50.45418504226387,63.15336419753086
50.487532157295114,63.22732445987654
50.520879272326354,63.4019637345679
50.55422638735759,63.566493055555554
50.58757350238883,63.63023919753086
50.62092061742007,63.63365547839506
50.6542677324513,63.63232060185185
50.68761484748254,63.60186535493827
50.72096196251378,63.60683641975309
50.754309077545024,63.6081712962963
50.78765619257626,63.627220293209874
50.8210033076075,63.657162422839505
50.85435042263874,63.68499807098765
50.88769753766997,63.70918981481481
50.92104465270121,63.72061149691358
50.95439176773245,63.65536072530864
50.98773888276369,63.169511959876544
51.02108599779493,63.04521797839506
51.05443311282617,63.00744984567901
51.08778022785741,62.98600887345679
51.12112734288864,63.13972993827161
51.15447445791988,63.54625385802469
51.18782157295112,63.75322723765432
51.221168687982356,63.92775462962963
51.2545158030136,63.99230902777778
51.28786291804484,64.02210069444445
51.32121003307608,64.0967399691358
51.35455714810731,64.14662422839505
51.38790426313855,64.35312885802469
51.42125137816979,64.58258294753087
51.454598493201026,64.72097222222222
51.487945608232266,64.87851658950618
51.52129272326351,64.96457947530864
51.55463983829475,64.88115933641976
51.58798695332598,64.38511959876543
51.62133406835722,63.924677854938274
51.65468118338846,63.69229166666667
51.688028298419695,63.505885416666665
51.721375413450936,63.42478202160494
51.754722528482176,63.36408179012346
51.78806964351342,63.424542824074074
51.82141675854465,63.50353009259259
51.85476387357589,63.567004243827164
51.88811098860713,63.64067322530864
51.921458103638365,63.683055555555555
51.954805218669605,63.734284336419755
51.988152333700846,63.796780478395064
52.02149944873209,63.863126929012346
52.05484656376332,63.9359837962963
52.08819367879456,64.01842592592592
52.1215407938258,64.06012731481482
52.154887908857035,64.08474729938271
52.188235023888275,63.97883487654321
52.221582138919516,63.401244212962965
52.254929253950756,62.99955632716049
52.28827636898199,62.832386188271606
52.32162348401323,62.81083526234568
52.35497059904447,62.785190972222225
52.388317714075704,62.82363811728395
52.421664829106945,62.84733796296296
52.455011944138185,62.90273148148148
52.488359059169426,62.989054783950614
52.52170617420066,63.159569830246916
52.5550532892319,63.37871913580247
52.58840040426314,63.51939429012346
52.621747519294374,63.60306134259259
52.655094634325614,63.65776041666667
52.688441749356855,63.693005401234565
52.721788864388095,63.86127893518518
52.75513597941933,64.18476273148148
52.78848309445057,64.32546103395062
52.82183020948181,64.35074459876543
52.85517732451304,64.2328125
52.888524439544284,63.69919174382716
52.921871554575524,63.43727237654321
52.955218669606765,63.24968557098765
52.988565784638,63.17853587962963
53.02191289966924,63.1111400462963
53.05526001470048,63.15335841049383
53.08860712973171,63.2329224537037
53.121954244762954,63.3672337962963
53.155301359794194,63.46227430555555
53.188648474825435,63.60729938271605
53.22199558985667,63.69668402777778
53.25534270488791,63.78368827160494
53.28868981991915,64.01409722222222
53.32203693495038,64.14905092592592
53.35538404998162,64.27684220679012
53.388731165012864,64.37005015432099
53.422078280044104,64.47979745370371
53.45542539507534,64.54958719135803
53.48877251010658,64.58675925925925
53.52211962513782,64.59063464506173
53.55546674016905,64.60368441358025
53.58881385520029,64.6005787037037
53.62216097023153,64.47410686728395
53.655508085262774,63.549423225308644
53.68885520029401,63.33221064814815
53.72220231532525,63.285256558641976
53.75554943035649,63.25798804012346
53.78889654538772,63.65550925925926
53.82224366041896,64.05518325617284
53.8555907754502,64.19397762345679
53.888937890481444,64.28731481481482
53.92228500551268,64.25942708333334
53.95563212054392,64.20012731481482
53.98897923557516,64.12393904320987
54.02232635060639,64.0415875771605
54.05567346563763,64.08137152777778
54.08902058066887,64.17208140432099
54.12236769570011,64.33916666666667
54.15571481073135,64.41829089506173
54.18906192576259,64.54688657407408
54.22240904079383,64.66800540123457
54.25575615582506,64.75318672839506
54.2891032708563,64.80215084876544
54.32245038588754,64.85229166666667
54.35579750091878,64.92208526234568
54.389144615950016,64.93494598765432
54.42249173098126,64.81118248456791
54.4558388460125,63.81625
54.48918596104373,63.44299382716049
54.52253307607497,63.35047453703704
54.55588019110621,63.285061728395064
54.58922730613745,63.36567322530864
54.622574421168686,63.517349537037035
54.655921536199926,63.751425540123456
54.68926865123117,63.91883487654321
54.7226157662624,64.01017554012346
54.75596288129364,64.05414158950617
54.78930999632488,64.11902199074073
54.82265711135612,64.22486111111111
54.856004226387356,64.52527199074073
54.889351341418596,64.71938078703704
54.92269845644984,64.82756172839507
54.95604557148107,64.92117669753087
54.98939268651231,65.06650462962963
55.02273980154355,65.29078896604938
55.05608691657479,65.4297048611111
55.089434031606025,65.4728800154321
55.122781146637266,65.48698688271605
55.156128261668506,65.41839506172839
55.18947537669974,65.39234760802469
55.22282249173098,65.29771219135803
55.25616960676222,64.1436574074074
55.28951672179346,62.84501543209876
55.322863836824695,62.5768074845679
55.356210951855935,62.5270100308642
55.389558066887176,62.555846836419754
55.42290518191841,62.66472800925926
55.45625229694965,62.90328703703704
55.48959941198089,63.1824537037037
55.52294652701213,63.341967592592596
55.556293642043364,63.41323688271605
55.589640757074605,63.446234567901236
55.622987872105845,63.44035108024691
55.65633498713708,63.56904706790124
55.68968210216832,63.75276813271605
55.72302921719956,64.16251929012346
55.7563763322308,64.45849922839506
55.789723447262034,64.51867091049382
55.823070562293275,64.5472087191358
55.856417677324515,64.56722608024691
55.88976479235575,64.59090663580247
55.92311190738699,64.56070601851852
55.95645902241823,64.48887345679012
55.98980613744947,64.29228973765431
56.023153252480704,63.37337577160494
56.056500367511944,63.22298032407407
56.089847482543185,63.14214891975308
56.12319459757442,63.147957175925924
56.15654171260566,63.189735725308644
56.1898888276369,63.48617476851852
56.22323594266814,63.683244598765434
56.25658305769937,63.77885802469136
56.289930172730614,63.79548225308642
56.323277287761854,63.77881172839506
56.35662440279309,63.740264274691356
56.38997151782433,63.71844135802469
56.42331863285557,63.68296103395062
56.45666574788681,63.750418595679015
56.49001286291804,63.820586419753084
56.52335997794928,63.98499035493827
56.556707092980524,64.18088155864197
56.59005420801176,64.40717013888889
56.623401323043,64.5578761574074
56.65674843807424,64.57515239197531
56.69009555310548,63.9216087962963
56.72344266813671,63.01613233024691
56.75678978316795,62.763765432098765
56.790136898199194,62.777631172839506
56.82348401323043,62.83310763888889
56.85683112826167,63.02402584876543
56.89017824329291,63.51242669753086
56.92352535832415,63.83813657407408
56.95687247335538,64.02967785493827
56.99021958838662,64.13518904320988
57.02356670341786,64.1713425925926
57.0569138184491,64.17349537037038
57.09026093348034,64.14123456790124
57.12360804851158,64.17028163580247
57.15695516354282,64.23062307098765
57.19030227857405,64.89954475308642
57.22364939360529,65.01828703703704
57.25699650863653,65.07537037037036
57.290343623667766,65.11399691358025
57.32369073869901,65.15664930555556
57.35703785373025,65.08418016975308
57.39038496876149,63.55640239197531
57.42373208379272,63.32623456790123
57.45707919882396,63.286583719135805
57.4904263138552,63.24442901234568
57.523773428886436,63.248962191358025
57.55712054391768,63.33903935185185
57.59046765894892,63.535435956790124
57.62381477398016,63.74664351851852
57.65716188901139,63.860596064814814
57.69050900404263,63.92452546296296
57.72385611907387,63.93145640432099
57.757203234105106,63.93631558641975
57.790550349136346,64.02286458333333
57.82389746416759,64.16115162037038
57.85724457919883,64.41254436728396
57.89059169423006,64.67822337962963
57.9239388092613,64.81616319444444
57.95728592429254,64.86114776234568
57.990633039323775,64.87914930555556
58.023980154355016,64.88228395061728
58.057327269386256,64.82729166666667
58.0906743844175,63.95421489197531
58.12402149944873,63.215752314814814
58.15736861447997,63.097563657407406
58.19071572951121,63.16479552469136
58.224062844542445,63.353493441358026
58.257409959573685,63.53070987654321
58.290757074604926,63.67016203703704
58.32410418963617,63.76066550925926
58.3574513046674,63.81395640432099
58.39079841969864,63.83194637345679
58.42414553472988,63.85225887345679
58.457492649761114,63.989319058641975
58.490839764792355,64.16922839506172
58.524186879823596,64.34369405864197
58.557533994854836,64.46088348765431
58.59088110988607,64.55895061728395
58.62422822491731,64.65302854938271
58.65757533994855,64.78556905864197
58.690922454979784,64.9057349537037
58.724269570011025,64.9488811728395
58.757616685042265,64.90168402777778
58.790963800073506,64.56433641975309
58.82431091510474,63.60907214506173
58.85765803013598,63.14602430555556
58.89100514516722,62.990515046296295
58.924352260198454,62.938852237654324
58.957699375229694,62.848825231481484
58.991046490260935,62.75180941358025
59.024393605292175,62.61523533950617
59.05774072032341,62.558684413580245
59.09108783535465,62.360788966049384
59.12443495038589,62.30223958333333
59.15778206541712,62.38806712962963
59.191129180448364,62.68379822530864
59.224476295479604,63.33166666666666
59.257823410510845,63.76920331790124
59.29117052554208,64.01548225308642
59.32451764057332,64.19271797839507
59.35786475560456,64.33730324074074
59.39121187063579,64.40859182098765
59.42455898566703,64.48916087962964
59.457906100698274,64.57588348765432
59.491253215729515,64.54326774691359
59.52460033076075,63.81019097222222
59.55794744579199,63.114963348765436
59.59129456082323,63.35569637345679
59.62464167585446,63.82200617283951
59.6579887908857,64.30673032407407
59.691335905916944,65.09033950617284
59.724683020948184,65.32383101851852
59.75803013597942,65.42791666666666
59.79137725101066,65.53972415123457
59.8247243660419,65.6448900462963
59.85807148107313,65.72248842592593
59.89141859610437,65.6895100308642
59.92476571113561,65.69862268518519
59.958112826166854,65.70999807098765
59.99145994119809,65.7714525462963
60.02480705622933,65.83977430555555
60.05815417126057,65.86365547839506
60.0915012862918,65.79290316358025
60.12484840132304,65.47433641975309
60.15819551635428,65.41530285493828
60.19154263138552,65.35217592592592
60.22488974641676,65.32501929012345
60.258236861448,65.52328317901235
60.29158397647924,66.27599729938271
60.32493109151047,66.72142939814815
60.35827820654171,66.85000192901235
60.39162532157295,66.87873842592593
60.42497243660419,66.80663773148149
60.45831955163543,66.3978125
