t_sec,brightness
0.0,88.90864197530864
0.03334692767808592,86.94456211419752
0.06669385535617184,85.95598958333333
0.10004078303425776,82.82516589506173
0.13338771071234368,81.80512345679013
0.1667346383904296,81.21574266975308
0.20008156606851552,80.9543788580247
0.23342849374660143,80.45453125
0.26677542142468735,80.2630150462963
0.30012234910277324,79.97080632716049
0.3334692767808592,79.85631558641975
0.36681620445894514,79.61202160493828
0.40016313213703103,79.33707947530864
0.4335100598151169,78.74955054012345
0.46685698749320287,78.28638117283951
0.5002039151712888,77.36128086419752
0.5335508428493747,76.79809992283951
0.5668977705274606,76.09682291666667
0.6002446982055465,75.57556327160493
0.6335916258836325,75.0535262345679
0.6669385535617184,74.58597029320988
0.7002854812398043,74.04196566358024
0.7336324089178903,73.58195601851853
0.7669793365959762,73.17847993827161
0.8003262642740621,72.84186921296296
0.833673191952148,72.50436921296296
0.8670201196302338,72.21371334876544
0.9003670473083198,71.96578896604939
0.9337139749864057,71.76570987654321
0.9670609026644916,71.65334297839506
1.0004078303425776,71.5296238425926
1.0337547580206634,71.40445794753086
1.0671016856987494,71.29907600308643
1.1004486133768354,71.18275077160494
1.1337955410549212,71.10824074074074
1.1671424687330072,71.04890432098766
1.200489396411093,71.0108699845679
1.233836324089179,70.89064429012346
1.267183251767265,70.8354263117284
1.3005301794453508,70.79849922839506
1.3338771071234368,70.78884259259259
1.3672240348015228,70.70639467592592
1.4005709624796085,70.66369791666666
1.4339178901576946,70.6641512345679
1.4672648178357806,71.01766203703704
1.5006117455138663,71.03239969135802
1.5339586731919523,71.09467592592593
1.5673056008700381,71.38837577160494
1.6006525285481241,71.42233796296296
1.6339994562262101,71.3324787808642
1.667346383904296,71.21879050925926
1.700693311582382,71.07045138888888
1.7340402392604677,70.96277391975309
1.7673871669385537,71.04413966049383
1.8007340946166397,70.88160879629629
1.8340810222947255,70.69771219135802
1.8674279499728115,70.48847608024691
1.9007748776508975,70.39863811728395
1.9341218053289833,70.42456790123457
1.9674687330070693,70.71316936728395
2.0008156606851553,70.683125
2.034162588363241,70.70433834876543
2.067509516041327,70.85506558641976
2.100856443719413,70.84582754629629
2.134203371397499,70.99936921296296
2.1675502990755846,71.47823688271605
2.200897226753671,71.43628472222223
2.2342441544317566,71.41978587962963
2.2675910821098424,69.22123842592593
2.3009380097879286,69.1073649691358
2.3342849374660144,69.05181134259259
2.3676318651441,69.01096643518518
2.400978792822186,68.98512924382716
2.434325720500272,68.94812692901235
2.467672648178358,68.96248456790123
2.5010195758564437,68.95661072530864
2.53436650353453,69.01318287037037
2.5677134312126157,69.04808641975309
2.6010603588907015,69.11759066358024
2.6344072865687878,69.17812885802469
2.6677542142468735,69.27637152777778
2.7011011419249593,69.40931520061729
2.7344480696030455,69.49184027777778
2.7677949972811313,69.56137924382716
2.801141924959217,69.55358410493827
2.8344888526373033,69.46812885802468
2.867835780315389,69.43378665123457
2.901182707993475,69.44146219135803
2.934529635671561,69.41511574074075
2.967876563349647,69.40216820987655
3.0012234910277327,69.42497299382715
3.0345704187058185,69.45671875
3.0679173463839047,69.47659915123457
3.1012642740619905,69.49386381172839
3.1346112017400762,69.51083140432098
3.1679581294181625,69.53375192901234
3.2013050570962482,69.54890432098766
3.234651984774334,69.58011574074074
3.2679989124524202,69.60320216049382
3.301345840130506,69.62486111111112
3.334692767808592,69.67004436728395
3.368039695486678,69.72369598765432
3.401386623164764,69.78195023148149
3.4347335508428496,69.83479552469136
3.4680804785209354,69.85805555555555
3.5014274061990216,69.95946759259259
3.5347743338771074,70.0332349537037
3.568121261555193,70.11305941358025
3.6014681892332794,70.18162615740741
3.634815116911365,70.30634837962963
3.668162044589451,70.37781442901235
3.701508972267537,70.45000192901234
3.734855899945623,70.51701581790124
3.7682028276237087,70.63228395061728
3.801549755301795,70.727550154321
3.8348966829798807,70.8127449845679
3.8682436106579665,70.88766782407407
3.9015905383360527,70.93474344135802
3.9349374660141385,70.85299189814815
3.9682843936922243,70.56728587962964
4.0016313213703105,70.41161651234567
4.034978249048396,70.21823109567902
4.068325176726482,70.02703703703703
4.101672104404568,69.75637152777777
4.135019032082654,69.44741898148148
4.16836595976074,69.26880401234568
4.201712887438826,69.18907793209877
4.235059815116911,69.1172087191358
4.268406742794998,69.09307484567901
4.301753670473084,68.99438271604939
4.335100598151169,68.96845486111111
4.368447525829255,68.9264101080247
4.401794453507342,68.9095736882716
4.435141381185427,68.90741898148148
4.468488308863513,68.91548418209877
4.5018352365415994,68.91173611111111
4.535182164219685,68.92232638888889
4.568529091897771,68.95696952160493
4.601876019575857,68.99416087962963
4.635222947253943,69.03458912037037
4.668569874932029,69.07293209876543
4.701916802610115,69.17429976851852
4.7352637302882,69.2749363425926
4.768610657966287,69.36361304012345
4.801957585644372,69.4034413580247
4.835304513322458,69.55380401234568
4.868651441000544,69.67121913580247
4.90199836867863,69.77921489197531
4.935345296356716,69.86972608024692
4.968692224034802,70.0327449845679
5.0020391517128875,70.12959876543209
5.035386079390974,70.23722800925925
5.06873300706906,70.30120177469136
5.102079934747145,70.30076967592592
5.1354268624252315,70.22632716049382
5.168773790103318,70.01881558641975
5.202120717781403,69.8464737654321
5.235467645459489,69.6738387345679
5.2688145731375755,69.52160686728395
5.302161500815661,69.39182291666667
5.335508428493747,69.27833912037038
5.368855356171833,69.1496875
5.402202283849919,69.09080825617283
5.435549211528005,69.0408699845679
5.468896139206091,69.0102025462963
5.502243066884176,68.93230709876543
5.535589994562263,68.90779706790123
5.568936922240349,68.85250578703703
5.602283849918434,68.85461805555556
5.63563077759652,68.89300347222222
5.668977705274607,68.9394637345679
5.702324632952692,68.98194444444445
5.735671560630778,69.01251157407407
5.769018488308864,69.10965470679012
5.80236541598695,69.18601273148148
5.835712343665036,69.24942708333333
5.869059271343122,69.2827662037037
5.9024061990212076,69.45087962962963
5.935753126699294,69.57011766975309
5.969100054377379,69.65936535493827
6.002446982055465,69.7178761574074
6.035793909733552,69.84362847222222
6.069140837411637,69.92964313271605
6.102487765089723,70.01262731481482
6.135834692767809,70.06287422839506
6.169181620445895,70.16062114197531
6.202528548123981,70.24346450617284
6.235875475802067,70.31406635802469
6.2692224034801525,70.33211033950617
6.302569331158239,70.22164158950618
6.335916258836325,69.98722222222223
6.36926318651441,69.80250192901235
6.4026101141924965,69.69093557098765
6.435957041870583,69.48055941358025
6.469303969548668,69.36001350308642
6.502650897226754,69.20749035493827
6.5359978249048405,69.07015239197531
6.569344752582926,69.00034143518519
6.602691680261012,68.9924324845679
6.636038607939098,68.9332137345679
6.669385535617184,68.92422646604938
6.70273246329527,68.8844598765432
6.736079390973356,68.86333912037037
6.769426318651441,68.86439814814815
6.802773246329528,68.89598572530865
6.836120174007614,68.92186728395062
6.869467101685699,68.97639274691358
6.902814029363785,69.03981288580248
6.936160957041871,69.09878279320988
6.969507884719957,69.23538580246914
7.002854812398043,69.37167052469135
7.0362017400761285,69.48751350308642
7.069548667754215,69.58631944444444
7.102895595432301,69.79325038580247
7.136242523110386,69.96318865740741
7.1695894507884725,70.12039737654321
7.202936378466559,70.20634645061729
7.236283306144644,70.32505594135803
7.26963023382273,70.36018325617285
7.3029771615008165,70.34391396604939
7.336324089178902,70.27993055555555
7.369671016856988,70.20324845679012
7.403017944535074,70.15185956790124
7.43636487221316,70.0891261574074
7.469711799891246,70.03425925925926
7.503058727569332,70.02967592592593
7.5364056552474175,70.06165702160494
7.569752582925504,70.04698688271606
7.60309951060359,70.05369405864198
7.636446438281675,70.06029320987655
7.6697933659597615,70.09324266975308
7.703140293637848,70.13240740740741
7.736487221315933,70.18772183641975
7.769834148994019,70.29132523148148
7.8031810766721055,70.37931520061728
7.836528004350191,70.45456983024691
7.869874932028277,70.50939621913581
7.903221859706363,70.66412422839507
7.936568787384449,70.7792611882716
7.969915715062535,70.8856963734568
8.003262642740621,70.97238425925926
8.036609570418706,71.14372685185185
8.069956498096792,71.26128665123457
8.103303425774879,71.35619791666667
8.136650353452964,71.41088155864198
8.16999728113105,71.4130150462963
8.203344208809137,71.36084683641975
8.236691136487222,71.30510609567901
8.270038064165307,71.23643518518519
8.303384991843394,71.13541859567901
8.33673191952148,71.09386574074074
8.370078847199565,71.02022183641975
8.403425774877652,70.9420351080247
8.436772702555738,70.9533699845679
8.470119630233823,70.94710262345679
8.50346655791191,70.93286651234568
8.536813485589995,70.94277970679012
8.57016041326808,70.94999421296296
8.603507340946168,70.98320216049383
8.636854268624253,70.99873649691358
8.670201196302338,71.03520447530865
8.703548123980426,71.13037229938271
8.73689505165851,71.22191165123456
8.770241979336596,71.30616319444445
8.803588907014683,71.36443094135802
8.836935834692769,71.50338734567902
8.870282762370854,71.60330054012346
8.903629690048941,71.71784336419753
8.936976617727026,71.7894386574074
8.970323545405112,71.88941165123457
9.003670473083199,71.88426311728395
9.037017400761284,71.84410300925926
9.07036432843937,71.75592978395062
9.103711256117457,71.65767361111111
9.137058183795542,71.57391589506173
9.170405111473627,71.49809027777778
9.203752039151714,71.4471662808642
9.2370989668298,71.31215663580247
9.270445894507885,71.25527970679012
9.303792822185972,71.1601523919753
9.337139749864058,71.12297839506172
9.370486677542143,71.10348572530864
9.40383360522023,71.09359182098765
9.437180532898315,71.08520061728395
9.4705274605764,71.09056520061728
9.503874388254488,71.13811149691358
9.537221315932573,71.15193865740741
9.570568243610658,71.17834297839507
9.603915171288744,71.20596836419753
9.637262098966831,71.32091049382716
9.670609026644916,71.42255401234569
9.703955954323002,71.5356288580247
9.737302882001089,71.62226273148148
9.770649809679174,71.75473765432099
9.80399673735726,71.80430169753086
9.837343665035347,71.86996720679012
9.870690592713432,71.89991898148148
9.904037520391517,72.03738040123457
9.937384448069604,72.18210648148148
9.97073137574769,72.29314236111111
10.004078303425775,72.41036844135803
10.037425231103862,72.58865740740741
10.070772158781947,72.66046489197531
10.104119086460033,72.66246334876543
10.13746601413812,72.56368827160493
10.170812941816205,72.41288194444445
10.20415986949429,72.29952353395062
10.237506797172378,72.16068094135802
10.270853724850463,72.04530478395061
10.304200652528548,71.92970100308642
10.337547580206635,71.85542438271605
10.37089450788472,71.76335455246914
10.404241435562806,71.71798418209876
10.437588363240893,71.62473958333334
10.470935290918979,71.5454899691358
10.504282218597064,71.51829089506172
10.537629146275151,71.5045486111111
10.570976073953236,71.49097029320987
10.604323001631322,71.50991512345679
10.637669929309409,71.51554398148149
10.671016856987494,71.56691358024692
10.70436378466558,71.62152006172839
10.737710712343667,71.69119791666667
10.771057640021752,71.73949266975309
10.804404567699837,71.80448302469136
10.837751495377924,71.90845486111111
10.87109842305601,72.0083275462963
10.904445350734095,72.08798032407407
10.937792278412182,72.17859567901235
10.971139206090267,72.2888136574074
11.004486133768353,72.38874807098766
11.03783306144644,72.46934027777777
11.071179989124525,72.53013888888889
11.10452691680261,72.64945216049382
11.137873844480698,72.76503279320988
11.171220772158783,72.86291473765432
11.204567699836868,72.98125578703704
11.237914627514956,72.95483024691357
11.27126155519304,72.8606500771605
11.304608482871126,72.73518518518519
11.337955410549213,72.63931520061729
11.371302338227299,72.45761188271605
11.404649265905384,72.34467592592593
11.437996193583471,72.22881365740741
11.471343121261556,72.15686921296296
11.504690048939642,72.0062037037037
11.538036976617729,71.91734375
11.571383904295814,71.84275270061728
11.6047308319739,71.82322145061728
11.638077759651987,71.72472608024691
11.671424687330072,71.6635474537037
11.704771615008157,71.62618634259259
11.738118542686244,71.64521412037037
11.77146547036433,71.59777970679012
11.804812398042415,71.59382908950617
11.8381593257205,71.5956674382716
11.871506253398588,71.6285300925926
11.904853181076673,71.66101851851852
11.938200108754758,71.71686535493828
11.971547036432845,71.77751157407407
12.00489396411093,71.84353202160494
12.038240891789016,71.97460069444445
12.071587819467103,72.05854552469135
12.104934747145188,72.14130015432099
12.138281674823274,72.25940393518519
12.171628602501361,72.36478780864198
12.204975530179446,72.50384645061729
12.238322457857532,72.71278356481481
12.271669385535619,73.1022974537037
12.305016313213704,73.30940972222223
12.33836324089179,73.31124035493828
12.371710168569876,73.20231095679013
12.405057096247962,72.96409143518518
12.438404023926047,72.82688657407408
12.471750951604134,72.71197145061728
12.50509787928222,72.62690393518518
12.538444806960305,72.55058256172839
12.571791734638392,72.43915895061728
12.605138662316477,72.35297453703704
12.638485589994563,72.26545331790123
12.67183251767265,72.22027970679012
12.705179445350735,72.13199074074075
12.73852637302882,72.0746913580247
12.771873300706908,72.01509452160494
12.805220228384993,72.0297762345679
12.838567156063078,71.97162422839506
12.871914083741165,71.96868441358025
12.90526101141925,71.95803047839506
12.938607939097336,71.97307484567901
12.971954866775423,71.99090856481482
13.005301794453509,72.02314814814815
13.038648722131594,72.02531442901234
13.071995649809681,72.09486111111111
13.105342577487766,72.24253086419753
13.138689505165852,72.35100115740741
13.172036432843939,72.43676311728395
13.205383360522024,72.47921296296296
13.23873028820011,72.57764081790124
13.272077215878197,72.60834490740741
13.305424143556282,72.62933834876543
13.338771071234367,72.5663850308642
13.372117998912454,72.32478395061729
13.40546492659054,72.11539158950617
13.438811854268625,71.93342592592593
13.472158781946712,71.79230709876543
13.505505709624797,71.55428819444444
13.538852637302883,71.43179398148148
13.57219956498097,71.33168016975308
13.605546492659055,71.26420138888889
13.63889342033714,71.17258101851851
13.672240348015228,71.13992476851851
13.705587275693313,71.10102237654321
13.738934203371398,71.12896797839507
13.772281131049485,71.10399691358025
13.80562805872757,71.111668595679
13.838974986405656,71.11890625
13.872321914083741,71.14835069444445
13.905668841761829,71.16997106481482
13.939015769439914,71.22804976851852
13.972362697118,71.2645775462963
14.005709624796086,71.3362287808642
14.039056552474172,71.43967978395062
14.072403480152257,71.57721064814815
14.105750407830344,71.77957947530864
14.13909733550843,71.92613233024692
14.172444263186515,72.09505594135803
14.205791190864602,72.12425733024692
14.239138118542687,72.0787326388889
14.272485046220773,71.82186728395062
14.30583197389886,71.69682098765432
14.339178901576945,71.59764081790124
14.37252582925503,71.51806520061729
14.405872756933118,71.4481963734568
14.439219684611203,71.33454668209876
14.472566612289288,71.29628472222223
14.505913539967375,71.24665895061729
14.53926046764546,71.25520447530864
14.572607395323546,71.20644483024691
14.605954323001633,71.1925212191358
14.639301250679718,71.1761149691358
14.672648178357804,71.20175347222222
14.70599510603589,71.23234953703704
14.739342033713976,71.30081211419753
14.772688961392062,71.36727044753087
14.806035889070149,71.49426118827161
14.839382816748234,71.6724575617284
14.87272974442632,71.76785300925926
14.906076672104406,71.83916087962963
14.939423599782492,71.9170524691358
14.972770527460577,71.99786072530864
15.006117455138664,72.10675925925926
15.03946438281675,72.21697723765432
15.072811310494835,72.33904320987655
15.106158238172922,72.50302469135802
15.139505165851007,72.58209683641975
15.172852093529093,72.59412808641976
15.20619902120718,72.52816743827161
15.239545948885265,71.93494020061729
15.27289287656335,71.75690393518518
15.306239804241438,71.66090663580248
15.339586731919523,71.64293209876543
15.372933659597608,71.55753472222223
15.406280587275695,71.49934413580247
15.43962751495378,71.43529513888889
15.472974442631866,71.43745949074074
15.506321370309953,71.35317322530864
15.539668297988039,71.29997106481481
15.573015225666124,71.26400462962962
15.606362153344211,71.2856462191358
15.639709081022296,71.29477816358025
15.673056008700382,71.33323881172839
15.706402936378469,71.35010995370371
15.739749864056554,71.41758487654322
15.77309679173464,71.52435185185185
15.806443719412727,71.64146604938271
15.839790647090812,71.71710455246914
15.873137574768897,71.83302083333334
15.906484502446984,71.97586805555555
15.93983143012507,72.09171682098766
15.973178357803155,72.20407600308641
16.006525285481242,72.24334297839506
16.039872213159327,72.2033738425926
16.073219140837413,71.56030864197531
16.106566068515498,71.37405671296297
16.139912996193583,71.27606674382716
16.173259923871672,71.17021797839506
16.206606851549758,71.02527391975309
16.239953779227843,70.77934027777778
16.27330070690593,70.69134066358025
16.306647634584014,70.6123649691358
16.3399945622621,70.60226658950617
16.373341489940188,70.59170910493827
16.406688417618273,70.60862461419752
16.44003534529636,70.60748263888888
16.473382272974444,70.65507330246913
16.50672920065253,70.69761574074074
16.540076128330615,70.75521990740741
16.573423056008703,70.83610918209877
16.60676998368679,70.92541473765432
16.640116911364874,70.9953587962963
16.67346383904296,71.08717978395062
16.706810766721045,71.19487847222223
16.74015769439913,71.33696180555556
16.77350462207722,71.43019675925926
16.806851549755304,71.56918209876544
16.84019847743339,71.71438850308643
16.873545405111475,71.85824459876544
16.90689233278956,71.98149305555556
16.940239260467646,72.09480324074075
16.973586188145735,72.20436342592592
17.00693311582382,72.16819058641975
17.040280043501905,71.91612847222223
17.07362697117999,71.71691936728395
17.106973898858076,71.57467978395061
17.14032082653616,71.48902777777778
17.173667754214247,71.38880979938271
17.207014681892336,71.35190200617284
17.24036160957042,71.22384452160493
17.273708537248506,71.16858796296296
17.30705546492659,71.11140432098766
17.340402392604677,71.1105574845679
17.373749320282762,71.03397183641975
17.40709624796085,71.03054591049383
17.440443175638936,71.06759452160493
17.47379010331702,71.14221450617283
17.507137030995107,71.27733410493828
17.540483958673192,71.4804899691358
17.573830886351278,71.66080825617284
17.607177814029367,71.81922260802469
17.640524741707452,71.94855324074074
17.673871669385537,72.04692708333333
17.707218597063623,72.13903163580247
17.740565524741708,72.22455825617284
17.773912452419793,72.31614969135802
17.807259380097882,72.43259452160494
17.840606307775968,72.52664351851851
17.873953235454053,72.56197337962963
17.90730016313214,72.707393904321
17.940647090810224,72.80895061728395
17.97399401848831,72.90184606481482
18.007340946166398,72.92842399691358
18.040687873844483,72.86547260802469
18.07403480152257,72.70247685185186
18.107381729200654,72.4510011574074
18.14072865687874,72.24267939814816
18.174075584556824,72.05702932098765
18.207422512234913,71.92554205246914
18.240769439913,71.80912422839506
18.274116367591084,71.7337461419753
18.30746329526917,71.63364583333333
18.340810222947255,71.59112461419753
18.37415715062534,71.55509259259259
18.40750407830343,71.55699652777778
18.440851005981514,71.51732253086419
18.4741979336596,71.51403549382717
18.507544861337685,71.52903163580247
18.54089178901577,71.57422453703704
18.574238716693856,71.59969135802469
18.607585644371945,71.68466049382717
18.64093257205003,71.74000771604938
18.674279499728115,71.82508680555556
18.7076264274062,71.96323302469136
18.740973355084286,72.1123013117284
18.77432028276237,72.27879243827161
18.80766721044046,72.40859375
18.841014138118545,72.56783564814815
18.87436106579663,72.69923032407408
18.907707993474716,72.82425925925926
18.9410549211528,72.9022337962963
18.974401848830887,73.06192129629629
19.007748776508976,73.18569830246913
19.04109570418706,73.24979166666667
19.074442631865146,73.35051311728395
19.10778955954323,73.35593171296296
19.141136487221317,73.2164949845679
19.174483414899402,72.9769386574074
19.207830342577488,72.7949961419753
19.241177270255577,72.65862075617284
19.274524197933662,72.58257716049383
19.307871125611747,72.48623456790123
19.341218053289833,72.44269483024691
19.374564980967918,72.3540837191358
19.407911908646003,72.33618055555556
19.441258836324092,72.32256944444444
19.474605764002177,72.32189621913581
19.507952691680263,72.29637152777778
19.541299619358348,72.32479938271605
19.574646547036433,72.34571952160493
19.60799347471452,72.38837384259259
19.641340402392608,72.48760030864197
19.674687330070693,72.59499421296296
19.70803425774878,72.67874421296297
19.741381185426864,72.75779320987654
19.77472811310495,72.90041859567901
19.808075040783034,72.9774363425926
19.841421968461123,73.05750771604939
19.87476889613921,73.1153086419753
19.908115823817294,73.26220486111112
19.94146275149538,73.40331404320987
19.974809679173465,73.53488811728396
20.00815660685155,73.63709104938272
20.04150353452964,73.70119212962963
20.074850462207724,73.66043402777778
20.10819738988581,73.55254436728396
20.141544317563895,73.41893325617283
20.17489124524198,73.30975694444444
20.208238172920066,73.20104166666667
20.241585100598154,73.1022125771605
20.27493202827624,73.04545524691358
20.308278955954325,72.95493634259259
20.34162588363241,72.91108989197531
20.374972811310496,72.85684027777778
20.40831973898858,72.8611400462963
20.44166666666667,72.82267554012346
20.475013594344755,72.82128086419753
20.50836052202284,72.81399691358024
20.541707449700926,72.85873456790124
20.57505437737901,73.02501929012345
20.608401305057097,73.17059220679012
20.641748232735186,73.29347222222222
20.67509516041327,73.40708333333333
20.708442088091356,73.7013638117284
20.74178901576944,73.91017554012346
20.775135943447527,74.0659124228395
20.808482871125612,74.25244598765433
20.8418297988037,74.56853780864198
20.875176726481786,74.65722800925926
20.908523654159872,74.65536265432098
20.941870581837957,74.47554976851852
20.975217509516042,74.33862847222223
21.008564437194128,74.21621720679012
21.041911364872217,74.07945408950617
21.075258292550302,73.98135609567902
21.108605220228387,73.83627700617284
21.141952147906473,73.71059220679012
21.175299075584558,73.58604166666667
21.208646003262643,73.49832368827161
21.241992930940732,73.39441358024692
21.275339858618818,73.33076967592592
21.308686786296903,73.29423225308642
21.34203371397499,73.30292824074074
21.375380641653074,73.31197723765432
21.40872756933116,73.3928973765432
21.442074497009244,73.42425154320988
21.475421424687333,73.4777237654321
21.50876835236542,73.61816936728395
21.542115280043504,73.73141010802469
21.57546220772159,73.98765817901234
21.608809135399675,74.17749807098765
21.64215606307776,74.32475694444445
21.67550299075585,74.4203973765432
21.708849918433934,74.48161072530864
21.74219684611202,74.51553047839506
21.775543773790105,74.66753472222223
21.80889070146819,74.67567322530864
21.842237629146275,74.55132716049383
21.875584556824364,74.17874035493827
21.90893148450245,73.89233024691357
21.942278412180535,73.66744598765432
21.97562533985862,73.47468171296296
22.008972267536706,73.28892168209876
22.04231919521479,73.11747106481481
22.07566612289288,72.99503086419753
22.109013050570965,72.85456018518518
22.14235997824905,72.79712770061728
22.175706905927136,72.7112037037037
22.20905383360522,72.6505574845679
22.242400761283307,72.59967785493828
22.275747688961395,72.58823688271605
22.30909461663948,72.58137731481482
22.342441544317566,72.63636574074074
22.37578847199565,72.65208140432098
22.409135399673737,72.6960474537037
22.442482327351822,72.82842013888889
22.47582925502991,72.92135030864198
22.509176182707996,73.08505208333334
22.54252311038608,73.30027777777778
22.575870038064167,73.52630979938272
22.609216965742252,73.63553819444445
22.642563893420338,73.74799768518518
22.675910821098427,73.7979899691358
22.709257748776512,73.88385416666667
22.742604676454597,73.92913966049383
22.775951604132683,73.96029320987654
22.809298531810768,73.94675925925925
22.842645459488853,74.01267361111111
22.875992387166942,74.07889660493827
22.909339314845028,74.14706211419752
22.942686242523113,74.23052083333333
22.976033170201198,74.09126929012346
23.009380097879284,73.51697530864197
23.04272702555737,73.27732831790124
23.076073953235458,73.08513310185185
23.109420880913543,72.87847029320987
23.14276780859163,72.67700038580247
23.176114736269714,72.47928240740741
23.2094616639478,72.31879822530864
23.242808591625884,72.13945987654321
23.276155519303973,72.01608796296296
23.30950244698206,71.94823688271605
23.342849374660144,71.86970293209876
23.37619630233823,71.85598572530864
23.409543230016315,71.85024691358025
23.4428901576944,71.82766396604939
23.47623708537249,71.80719907407408
23.509584013050574,71.81802469135802
23.54293094072866,71.81525270061728
23.576277868406745,71.83763503086419
23.60962479608483,71.86050540123456
23.642971723762916,71.93857253086419
23.676318651441,72.01356481481481
23.70966557911909,72.09646604938271
23.743012506797175,72.15761766975308
23.77635943447526,72.30737461419753
23.809706362153346,72.45157021604938
23.84305328983143,72.59346836419753
23.876400217509516,72.71122106481481
23.909747145187605,72.87095100308642
23.94309407286569,72.98206983024691
23.976441000543776,73.11158564814815
24.00978792822186,73.21862075617284
24.043134855899947,73.39230516975309
24.076481783578032,73.50968557098766
24.10982871125612,73.51663387345678
24.143175638934206,73.29190200617283
24.17652256661229,72.99463734567901
24.209869494290377,72.79832561728395
24.243216421968462,72.61447723765433
24.276563349646548,72.42197530864198
24.309910277324636,72.291300154321
24.343257205002722,72.19081597222223
24.376604132680807,72.0783487654321
24.409951060358893,72.01606095679013
24.443297988036978,71.92892361111112
24.476644915715063,71.88866512345679
24.509991843393152,71.83418595679012
24.543338771071237,71.83033757716049
24.576685698749323,71.80484567901235
24.610032626427408,71.81715470679012
24.643379554105493,71.83753279320987
24.67672648178358,71.86410879629629
24.710073409461668,71.93467013888889
24.743420337139753,71.99574845679012
24.77676726481784,72.06686342592593
24.810114192495924,72.12730131172839
24.84346112017401,72.2471875
24.876808047852094,72.32992283950617
24.910154975530183,72.39804398148148
24.94350190320827,72.46552083333333
24.976848830886354,72.58021026234567
25.01019575856444,72.66983989197531
25.043542686242525,72.7538638117284
25.07688961392061,72.81657407407407
25.1102365415987,72.93492669753087
25.143583469276784,73.04566936728395
25.17693039695487,73.12446952160494
25.210277324632955,73.23109182098766
25.24362425231104,73.2638175154321
25.276971179989125,73.20025848765432
25.310318107667214,72.8979224537037
25.3436650353453,72.66941936728395
25.377011963023385,72.4559837962963
25.41035889070147,72.29698688271606
25.443705818379556,72.16204089506172
25.47705274605764,72.07014467592593
25.51039967373573,71.91820601851852
25.543746601413815,71.83733410493826
25.5770935290919,71.77717785493827
25.610440456769986,71.76144675925926
25.64378738444807,71.69026041666666
25.677134312126157,71.66894097222222
25.710481239804242,71.66149691358025
25.74382816748233,71.69859375
25.777175095160416,71.71461419753086
25.8105220228385,71.73867091049382
25.843868950516587,71.77481095679012
25.877215878194672,71.82197337962963
25.910562805872758,71.89758101851852
25.943909733550846,71.99177276234568
25.97725666122893,72.05357445987654
26.010603588907017,72.10037229938271
26.043950516585102,72.22240162037038
26.077297444263188,72.36329282407408
26.110644371941273,72.47119020061729
26.143991299619362,72.59010416666666
26.177338227297447,72.71344907407408
26.210685154975533,72.82410108024692
26.244032082653618,72.92098958333334
26.277379010331703,72.97226466049382
26.31072593800979,73.15269675925926
26.344072865687878,73.27523148148148
26.377419793365963,73.37519675925925
26.410766721044048,73.42140046296296
26.444113648722134,73.36851080246913
26.47746057640022,72.9850925925926
26.510807504078304,72.70499421296296
26.544154431756393,72.5522550154321
26.57750135943448,72.40296875
26.610848287112564,72.29380015432099
26.64419521479065,72.19213155864198
26.677542142468734,72.13404706790124
26.71088907014682,72.03838927469135
26.74423599782491,71.9842226080247
26.777582925502994,71.95008294753086
26.81092985318108,71.94610725308642
26.844276780859165,71.89961226851852
26.87762370853725,71.90034143518518
26.910970636215335,71.91793402777778
26.944317563893424,71.96610339506172
26.97766449157151,72.01544945987655
27.011011419249595,72.10688464506173
27.04435834692768,72.16807484567902
27.077705274605766,72.23820601851853
27.11105220228385,72.3517862654321
27.14439912996194,72.51695216049383
27.177746057640025,72.68734567901235
27.21109298531811,72.79738811728394
27.244439912996196,73.02766589506173
27.27778684067428,73.14763117283951
27.311133768352367,73.24367283950617
27.344480696030455,73.27249035493827
27.37782762370854,73.37310763888888
27.411174551386626,73.45403549382716
27.44452147906471,73.5524151234568
27.477868406742797,73.60421875
27.511215334420882,73.70927662037037
27.54456226209897,73.70052662037037
27.577909189777056,73.5874112654321
27.61125611745514,72.96230709876544
27.644603045133227,72.7650887345679
27.677949972811312,72.59113233024691
27.711296900489398,72.45093171296297
27.744643828167483,72.34609953703703
27.777990755845572,72.20254436728395
27.811337683523657,72.07187114197531
27.844684611201743,71.97414544753086
27.878031538879828,71.93029706790124
27.911378466557913,71.82259452160494
27.944725394236,71.78446952160493
27.978072321914087,71.7149961419753
28.011419249592173,71.69599537037037
28.044766177270258,71.71922839506173
28.078113104948343,71.75635030864197
28.11146003262643,71.80542052469136
28.144806960304514,71.82511959876543
28.178153887982603,71.91809220679012
28.21150081566069,71.99494405864198
28.244847743338774,72.06541473765432
28.27819467101686,72.11924768518519
28.311541598694944,72.25248263888889
28.34488852637303,72.35994020061729
28.37823545405112,72.45596836419753
28.411582381729204,72.53250964506172
28.44492930940729,72.76163580246913
28.478276237085375,73.00032600308641
28.51162316476346,73.1411400462963
28.544970092441545,73.0952449845679
28.578317020119634,72.51687307098766
28.61166394779772,72.31641589506172
28.645010875475805,72.14848765432099
28.67835780315389,72.0360300925926
28.711704730831975,71.88601273148149
28.74505165851006,71.73546296296297
28.77839858618815,71.65354745370371
28.811745513866235,71.60313850308641
28.84509244154432,71.5576774691358
28.878439369222406,71.5264486882716
28.91178629690049,71.49925154320988
28.945133224578576,71.49086612654321
28.978480152256665,71.5388348765432
29.01182707993475,71.57277391975309
29.045174007612836,71.61266782407408
29.07852093529092,71.65628858024691
29.111867862969007,71.80181520061728
29.145214790647092,71.90697723765432
29.17856171832518,72.02380787037038
29.211908646003266,72.09383680555555
29.24525557368135,72.2987962962963
29.278602501359437,72.44290702160494
29.311949429037522,72.59402777777778
29.345296356715608,72.74762345679012
29.378643284393696,73.02772569444444
29.41199021207178,73.17969328703704
29.445337139749867,73.31418209876543
29.478684067427952,73.38066936728396
29.512030995106038,73.5104648919753
29.545377922784123,73.59112847222222
29.578724850462212,73.66909143518518
29.612071778140297,73.64873070987655
29.645418705818383,73.41681712962964
29.678765633496468,72.79040702160493
29.712112561174553,72.60908950617284
29.74545948885264,72.47470293209877
29.778806416530728,72.2891512345679
29.812153344208813,72.1572125771605
29.8455002718869,72.01047839506172
29.878847199564984,71.86253472222222
29.91219412724307,71.79684992283951
29.945541054921154,71.75184606481481
29.97888798259924,71.68366512345679
30.01223491027733,71.67253472222222
30.045581837955414,71.65093364197531
30.0789287656335,71.63673032407408
30.112275693311584,71.66663580246913
30.14562262098967,71.6768074845679
30.178969548667755,71.73244598765432
30.212316476345844,71.80178047839506
30.24566340402393,71.89060956790124
30.279010331702015,71.95823302469135
30.3123572593801,72.16063078703704
30.345704187058185,72.32872106481481
30.37905111473627,72.47460455246913
30.41239804241436,72.5660513117284
30.445744970092445,72.69207754629629
30.47909189777053,72.78461805555555
30.512438825448616,72.82602044753087
30.5457857531267,72.8623013117284
30.579132680804786,73.01320023148148
30.612479608482875,73.13773148148148
30.64582653616096,73.24658950617284
30.679173463839046,73.31835455246913
30.71252039151713,73.50532407407407
30.745867319195217,73.619481095679
30.779214246873302,73.57009066358025
30.81256117455139,72.97992091049383
30.845908102229476,72.41647183641976
30.87925502990756,72.22778163580247
30.912601957585647,72.03426311728396
30.945948885263732,71.8387962962963
30.979295812941817,71.38086033950617
31.012642740619906,70.76026234567901
31.04598966829799,70.58489776234568
31.079336595976077,70.51654899691358
31.112683523654162,70.47446566358025
31.146030451332248,70.45629822530864
31.179377379010333,70.45066743827161
31.212724306688422,70.46953125
31.246071234366507,70.51716049382716
31.279418162044593,70.62018325617284
31.312765089722678,70.68815200617284
31.346112017400763,70.77665123456791
31.37945894507885,70.92257137345679
31.412805872756937,71.05856288580247
31.446152800435023,71.17527391975308
31.479499728113108,71.27671103395062
31.512846655791193,71.43292824074074
31.54619358346928,71.5808950617284
31.579540511147364,71.69071373456791
31.612887438825453,71.7942399691358
31.64623436650354,71.94012152777778
31.679581294181624,72.0976986882716
31.71292822185971,72.21809027777778
31.746275149537794,72.32878279320988
31.77962207721588,72.41739969135803
31.81296900489397,72.50322530864197
31.846315932572054,72.57846643518519
31.87966286025014,72.63436342592593
31.913009787928225,72.74072723765433
31.94635671560631,72.8003337191358
31.979703643284395,72.84794945987655
32.013050570962484,72.29287808641975
32.046397498640566,72.10809027777778
32.079744426318655,71.93883101851851
32.11309135399674,71.82154706790124
32.146438281674826,71.72968942901234
32.179785209352914,71.57145640432098
32.213132137030996,71.44054012345678
32.246479064709085,71.32165895061729
32.27982599238717,71.27255787037036
32.313172920065256,71.23669367283951
32.346519847743345,71.23152391975309
32.379866775421426,71.2330825617284
32.413213703099515,71.27844328703704
32.4465606307776,71.33952546296297
32.479907558455686,71.43264853395061
32.51325448613377,71.51911458333333
32.54660141381186,71.63593171296296
32.579948341489946,71.82540509259259
32.61329526916803,72.0496836419753
32.646642196846116,72.27556327160494
32.6799891245242,72.46322337962962
32.71333605220229,72.7004012345679
32.746682979880376,72.83016589506173
32.78002990755846,72.96900848765432
32.81337683523655,73.03851658950617
32.84672376291463,73.22561535493827
32.88007069059272,73.3850675154321
32.9134176182708,73.54616705246913
32.94676454594889,73.65086226851852
32.98011147362698,73.95576195987654
33.01345840130506,74.20632330246913
33.04680532898315,74.525
33.08015225666123,74.75893518518518
33.11349918433932,74.74468171296296
33.14684611201741,74.24869020061729
33.18019303969549,73.19527199074074
33.21353996737358,72.9199112654321
33.24688689505166,72.71761574074074
33.28023382272975,72.54910300925926
33.31358075040783,72.42090277777778
33.34692767808592,72.32553626543209
33.38027460576401,72.20797646604939
33.41362153344209,72.12201967592593
33.44696846112018,72.02445794753086
33.48031538879826,71.9751986882716
33.51366231647635,71.91494405864198
33.54700924415444,71.91463734567901
33.58035617183252,71.92862268518519
33.61370309951061,72.02075810185185
33.64705002718869,72.16902777777777
33.68039695486678,72.29786844135802
33.71374388254486,72.39369984567901
33.74709081022295,72.43895254629629
33.78043773790104,72.63551311728395
33.81378466557912,72.81516396604938
33.84713159325721,73.02856867283951
33.88047852093529,73.16528742283951
33.91382544861338,73.31114776234568
33.94717237629147,73.3851813271605
33.98051930396955,73.48054783950617
34.01386623164764,73.55614004629629
34.04721315932572,73.7370138888889
34.08056008700381,73.96679976851851
34.11390701468189,74.35021797839507
34.14725394235998,74.41356674382716
34.18060087003807,74.27704475308641
34.21394779771615,72.9494637345679
34.24729472539424,72.63516396604938
34.28064165307232,72.4288850308642
34.31398858075041,72.20597222222223
34.34733550842849,72.02960069444444
34.38068243610658,71.87400655864198
34.41402936378467,71.77201195987654
34.44737629146275,71.68404899691357
34.48072321914084,71.61972415123456
34.51407014681892,71.5678125
34.54741707449701,71.53179591049383
34.5807640021751,71.53206404320987
34.61411092985318,71.59767939814814
34.64745785753127,71.6623186728395
34.680804785209354,71.86897955246914
34.71415171288744,72.1883526234568
34.747498640565524,72.3826350308642
34.78084556824361,72.47837577160495
34.8141924959217,72.4896199845679
34.847539423599784,72.57519290123457
34.88088635127787,72.65704089506173
34.914233278955955,72.74777970679013
34.94758020663404,72.80519290123456
34.98092713431213,72.90031442901234
35.014274061990214,72.90078703703703
35.0476209896683,72.83846643518518
35.080967917346385,72.65896219135803
35.114314845024474,72.44823688271605
35.147661772702556,72.24876350308642
35.181008700380644,72.09034336419754
35.21435562805873,71.99174575617283
35.247702555736815,71.8954012345679
35.281049483414904,71.84659722222223
35.314396411092986,71.78292824074074
35.347743338771075,71.76115740740741
35.38109026644916,71.66813271604939
35.414437194127245,71.63042052469136
35.447784121805334,71.59432870370371
35.481131049483416,71.6078973765432
35.514477977161505,71.77008101851852
35.54782490483959,72.0389313271605
35.581171832517676,72.15362847222222
35.614518760195764,72.18658950617284
35.647865687873846,72.27806327160494
35.681212615551935,72.34698302469135
35.71455954323002,72.3979012345679
35.747906470908106,72.39834297839506
35.781253398586195,72.30105516975308
35.81460032626428,71.88330054012346
35.847947253942365,71.62695023148149
35.88129418162045,71.47883294753086
35.914641109298536,71.36055169753087
35.94798803697662,71.30647183641975
35.98133496465471,71.23480324074075
36.014681892332796,71.20185956790124
36.04802882001088,71.13837577160494
36.081375747688966,71.13010802469135
36.11472267536705,71.09500192901234
36.14806960304514,71.0837750771605
36.181416530723226,71.10772955246914
36.21476345840131,71.20498456790123
36.2481103860794,71.35035493827161
36.28145731375748,71.67255401234569
36.31480424143557,71.92158179012345
36.34815116911365,72.10990354938272
36.38149809679174,72.28571180555555
36.41484502446983,72.44111111111111
36.44819195214791,72.67910300925926
36.481538879826,73.11989969135803
36.51488580750408,73.2630787037037
36.54823273518217,73.242550154321
36.58157966286025,73.27299382716049
36.61492659053834,73.31078510802469
36.64827351821643,73.33378472222222
36.68162044589451,73.33110339506173
36.7149673735726,73.25110725308642
36.74831430125068,72.4134124228395
36.78166122892877,72.12739969135802
36.81500815660686,71.90017939814815
36.84835508428494,71.56885030864197
36.88170201196303,71.28950424382717
36.91504893964111,70.87722222222222
36.9483958673192,70.62879050925926
36.98174279499728,70.50973186728395
37.01508972267537,70.47428047839506
37.04843665035346,70.46902777777778
37.08178357803154,70.49769290123457
37.11513050570963,70.51565586419753
37.14847743338771,70.5653086419753
37.1818243610658,70.63583526234568
37.21517128874389,70.73350694444444
37.24851821642197,70.91173418209877
37.28186514410006,71.08009452160493
37.31521207177814,71.28440393518518
37.34855899945623,71.47735532407407
37.38190592713431,71.68680941358025
37.4152528548124,71.85337770061729
37.44859978249049,72.08434799382717
37.48194671016857,72.17984182098765
37.51529363784666,72.42414544753086
37.54864056552474,72.69601851851851
37.58198749320283,72.90961612654321
37.61533442088092,73.09829089506172
37.648681348559,73.36023148148148
37.68202827623709,73.65233796296296
37.71537520391517,73.82124421296297
37.74872213159326,73.83219521604939
37.78206905927134,73.93598765432098
37.81541598694943,74.08771604938272
37.84876291462752,74.23481481481481
37.8821098423056,74.3228761574074
37.91545676998369,74.33015432098766
37.94880369766177,74.22839506172839
37.98215062533986,73.94983989197532
38.01549755301795,73.60722415123456
38.04884448069603,73.30092978395062
38.08219140837412,73.06045331790123
38.115538336052204,72.83195408950617
38.14888526373029,72.66931327160493
38.182232191408374,72.3749324845679
38.21557911908646,72.2060050154321
38.24892604676455,71.98271219135802
38.282272974442634,71.84351851851852
38.31561990212072,71.79264467592593
38.348966829798805,71.8008487654321
38.382313757476894,71.80601466049383
38.415660685154975,71.84505594135803
38.449007612833064,72.01116898148148
38.48235454051115,72.14416666666666
38.515701468189235,72.2537712191358
38.549048395867324,72.33793595679012
38.582395323545406,72.53660300925925
38.615742251223494,72.7060686728395
38.64908917890158,72.85793981481481
38.682436106579665,73.00681905864198
38.715783034257754,73.2601099537037
38.749129961935836,73.42893904320988
38.782476889613925,73.55949845679012
38.81582381729201,73.64611689814815
38.849170744970095,73.85925925925926
38.882517672648184,74.02253086419753
38.915864600326266,74.18730324074075
38.949211528004355,74.30221257716049
38.98255845568244,74.41976080246914
39.015905383360526,74.4955362654321
39.049252311038614,74.56054591049383
39.082599238716696,74.59090277777777
39.115946166394785,74.65729938271605
39.14929309407287,74.67125771604938
39.182640021750956,74.67401234567902
39.21598694942904,74.67637345679012
39.24933387710713,74.59347800925926
39.282680804785215,74.49297453703704
39.3160277324633,74.40629822530865
39.349374660141386,74.35205054012346
39.38272158781947,74.25876929012345
39.41606851549756,74.19039351851852
39.449415443175646,74.11725308641975
39.48276237085373,74.08456597222222
39.516109298531816,74.0336188271605
39.5494562262099,74.02791280864197
39.58280315388799,74.02629822530864
39.61615008156607,74.05767168209877
39.64949700924416,74.07357831790124
39.68284393692225,74.1348398919753
39.71619086460033,74.16020061728395
39.74953779227842,74.22648919753087
39.7828847199565,74.17854938271606
39.81623164763459,74.10043981481482
39.84957857531268,74.01237654320988
39.88292550299076,73.95505015432099
39.91627243066885,73.7932388117284
39.94961935834693,73.6875925925926
39.98296628602502,73.5871913580247
40.0163132137031,73.56959683641975
40.04966014138119,74.2066087962963
40.08300706905928,73.87562692901234
40.11635399673736,73.61196373456791
40.14970092441545,72.94210841049383
40.18304785209353,72.80907021604938
40.21639477977162,72.27330054012346
40.24974170744971,71.3277662037037
40.28308863512779,71.38070601851852
40.31643556280588,71.24523726851852
40.34978249048396,70.53455632716049
40.38312941816205,70.59934992283951
40.41647634584013,70.5158738425926
40.44982327351822,69.56266782407407
40.48317020119631,69.61679591049382
40.51651712887439,69.62844328703704
40.54986405655248,69.3211612654321
40.58321098423056,69.5775887345679
40.61655791190865,69.68127121913581
40.64990483958673,69.68674575617284
40.68325176726482,69.45519097222223
40.71659869494291,70.1725
40.74994562262099,70.38175154320987
40.78329255029908,70.65728973765432
40.81663947797716,70.91217206790124
40.84998640565525,71.22876350308643
40.88333333333334,71.57072530864197
40.91668026101142,71.88333912037037
40.95002718868951,72.14215084876543
40.98337411636759,72.43577160493827
41.01672104404568,72.7171026234568
41.05006797172376,72.95925733024691
41.08341489940185,73.18001350308641
41.11676182707994,73.42405671296297
41.15010875475802,73.6568074845679
41.18345568243611,73.87291859567901
41.21680261011419,74.07339699074075
41.25014953779228,74.35589699074075
41.28349646547037,74.59576195987654
41.31684339314845,74.8083699845679
41.35019032082654,75.0128375771605
41.383537248504624,75.28745949074074
41.41688417618271,75.46282214506172
41.450231103860794,75.60602237654321
41.48357803153888,75.70851658950617
41.51692495921697,75.90193865740741
41.550271886895054,76.03086805555556
41.58361881457314,76.13774691358024
41.616965742251224,76.17718942901234
41.65031266992931,76.21754822530865
41.6836595976074,76.24923804012346
41.717006525285484,76.29251929012345
41.75035345296357,76.32037422839507
41.783700380641655,76.38174768518519
41.817047308319744,76.41780285493827
41.850394235997825,76.45314429012346
41.883741163675914,76.46760416666666
41.917088091354,76.52477044753087
41.950435019032085,76.51473186728396
41.983781946710174,76.53581404320988
42.017128874388256,76.5125713734568
42.050475802066344,76.54457561728395
42.08382272974443,76.5462326388889
42.117169657422515,76.57253858024691
42.150516585100604,76.54999614197531
42.183863512778686,76.59602430555556
42.217210440456775,76.61335648148147
42.25055736813486,76.63808449074074
42.283904295812945,76.62490547839506
42.317251223491034,76.68528742283951
42.350598151169116,76.72292052469136
42.383945078847205,76.77998456790124
42.41729200652529,76.8021199845679
42.450638934203376,76.84385802469136
42.483985861881465,76.82769097222223
42.517332789559546,76.80517939814816
42.550679717237635,76.75049961419754
42.58402664491572,76.72282021604939
42.617373572593806,76.67809606481481
42.65072050027189,76.63320794753086
42.68406742794998,76.59296296296296
42.717414355628065,76.56130015432099
42.75076128330615,76.53697145061729
42.784108210984236,76.54378472222223
42.81745513866232,76.54827160493826
42.85080206634041,76.5267361111111
42.88414899401849,76.51370177469136
42.91749592169658,76.51600308641976
42.950842849374666,76.50875964506173
42.98418977705275,76.52329475308642
43.01753670473084,76.50560378086419
43.05088363240892,76.48982831790123
43.08423056008701,76.44543981481482
43.1175774877651,76.42427276234568
43.15092441544318,76.3978337191358
43.18427134312127,76.3796875
43.21761827079935,76.35871141975309
43.25096519847744,76.34721450617283
43.28431212615552,76.32414544753087
43.31765905383361,76.32595679012346
43.3510059815117,76.34555362654321
43.38435290918978,76.39666859567902
43.41769983686787,76.44273919753087
43.45104676454595,76.51069830246914
43.48439369222404,76.52567708333333
43.51774061990213,76.49336226851852
43.55108754758021,76.42928240740741
43.5844344752583,76.36454089506172
43.61778140293638,76.28262538580248
43.65112833061447,76.16483217592592
43.68447525829255,76.05006172839506
43.71782218597064,75.93588348765432
43.75116911364873,75.82933063271605
43.78451604132681,75.69828896604939
43.8178629690049,75.59656442901235
43.85120989668298,75.47482831790123
43.88455682436107,75.33492476851852
43.91790375203916,75.29593364197531
43.95125067971724,75.2338425925926
43.98459760739533,75.20198688271606
44.01794453507341,75.15997685185185
44.0512914627515,75.16824845679012
44.08463839042958,75.15399691358024
44.11798531810767,75.15852816358024
44.15133224578576,75.17647955246913
44.18467917346384,75.22611882716049
44.21802610114193,75.23187885802469
44.25137302882001,75.22925347222223
44.2847199564981,75.20684220679013
44.31806688417619,75.14486304012345
44.35141381185427,75.1083699845679
44.38476073953236,75.09296103395062
44.41810766721044,75.06886574074075
44.45145459488853,75.07296103395062
44.48480152256661,75.05715084876543
44.5181484502447,75.07292052469136
44.55149537792279,75.11688271604939
44.58484230560087,75.10058641975309
44.61818923327896,75.0378086419753
44.65153616095704,74.98846643518519
44.68488308863513,74.93271026234568
44.71823001631322,74.77103395061728
44.7515769439913,74.63063271604938
44.78492387166939,74.48441550925926
44.818270799347474,74.30637345679013
44.85161772702556,74.17906442901234
44.884964654703644,74.024375
44.91831158238173,73.85031635802468
44.95165851005982,73.70191550925927
44.985005437737904,73.49078703703704
45.01835236541599,73.31237075617284
45.051699293094075,73.19009837962963
45.08504622077216,73.0750212191358
45.118393148450245,72.95156057098765
45.151740076128334,72.85223958333333
45.18508700380642,72.84739197530864
45.218433931484505,72.85183641975308
45.251780859162594,72.82576388888889
45.285127786840675,72.79023341049383
45.318474714518764,72.79276041666667
45.35182164219685,72.78793788580246
45.385168569874935,72.75170138888889
45.418515497553024,72.74511574074074
45.451862425231106,72.75785686728395
45.485209352909195,72.77605516975309
45.518556280587276,72.83951388888889
45.551903208265365,72.8914949845679
45.585250135943454,72.95436342592592
45.618597063621536,72.97100308641976
45.651943991299625,73.04508101851852
45.68529091897771,73.12041473765431
45.718637846655795,73.2474575617284
45.751984774333884,73.34318672839507
45.785331702011966,73.29555941358025
45.818678629690055,73.19376543209877
45.85202555736814,73.10303240740741
45.885372485046226,72.99524305555556
45.91871941272431,72.83729166666667
45.952066340402396,72.71104166666667
45.985413268080485,72.59881944444444
46.01876019575857,72.46718171296297
46.052107123436656,72.28119598765431
46.08545405111474,72.11761766975309
46.11880097879283,71.96640432098765
46.152147906470915,71.8197087191358
46.185494834149,71.61778935185185
46.218841761827086,71.48114197530865
46.25218868950517,71.3663850308642
46.28553561718326,71.31031828703703
46.31888254486134,71.23012731481481
46.35222947253943,71.17503086419752
46.385576400217516,71.14076967592592
46.4189233278956,71.1413387345679
46.45227025557369,71.18482060185185
46.48561718325177,71.21857831790123
46.51896411092986,71.28090663580247
46.55231103860795,71.32997492283951
46.58565796628603,71.49788773148148
46.61900489396412,71.57754050925926
46.6523518216422,71.68242862654321
46.68569874932029,71.77774884259259
46.71904567699837,71.88440779320987
46.75239260467646,71.94782214506174
46.78573953235455,72.00094521604939
46.81908646003263,71.95813464506173
46.85243338771072,71.84928819444444
46.8857803153888,71.74163966049383
46.91912724306689,71.63694058641975
46.95247417074498,71.54591435185185
46.98582109842306,71.39379822530864
47.01916802610115,71.24922453703704
47.05251495377923,71.12753279320988
47.08586188145732,71.01671682098765
47.1192088091354,70.91123649691357
47.15255573681349,70.82468171296296
47.18590266449158,70.76328510802469
47.21924959216966,70.71497299382716
47.25259651984775,70.67583140432099
47.28594344752583,70.658125
47.31929037520392,70.64989776234567
47.352637302882,70.66899884259259
47.38598423056009,70.72623070987655
47.41933115823818,70.74340856481481
47.45267808591626,70.78103780864197
47.48602501359435,70.8384162808642
47.51937194127243,71.00215277777778
47.55271886895052,71.08383294753087
47.58606579662861,71.19224344135803
47.61941272430669,71.32369984567902
47.65275965198478,71.4482349537037
47.68610657966286,71.55228973765432
47.71945350734095,71.66014081790124
47.75280043501903,71.80838734567901
47.78614736269712,72.09008680555556
47.81949429037521,72.22033950617283
47.85284121805329,72.18936535493827
47.88618814573138,72.06724729938271
47.91953507340946,71.94922839506172
47.95288200108755,71.80098572530864
47.98622892876564,71.64320023148149
48.01957585644372,71.51103009259259
48.05292278412181,71.3308699845679
48.08626971179989,71.17308256172839
48.11961663947798,71.03836998456791
48.152963567156064,70.90655285493827
48.18631049483415,70.7164911265432
48.21965742251224,70.55580439814815
48.253004350190324,70.4101138117284
48.28635127786841,70.32995370370371
48.319698205546494,70.2796161265432
48.35304513322458,70.2627411265432
48.38639206090267,70.26809220679013
48.419738988580754,70.25056327160493
48.45308591625884,70.36214699074074
48.486432843936925,70.48100694444445
48.51977977161501,70.6170563271605
48.553126699293095,70.71027391975309
48.586473626971184,70.86190972222222
48.61982055464927,71.0141261574074
48.653167482327355,71.16069830246913
48.686514410005444,71.23789544753086
48.719861337683525,71.43715856481481
48.753208265361614,71.54538387345679
48.7865551930397,71.62097608024692
48.819902120717785,71.6542399691358
48.853249048395874,71.68656442901235
48.886595976073956,71.63946952160494
48.919942903752045,71.5464023919753
48.953289831430126,71.42850115740741
48.986636759108215,71.34840470679012
49.019983686786304,71.25022183641975
49.053330614464386,71.16858410493828
49.086677542142475,71.1157098765432
49.12002446982056,71.1218499228395
49.153371397498645,71.10899305555556
49.18671832517673,71.10617476851851
49.220065252854816,71.06348958333334
49.253412180532905,71.06798032407407
49.28675910821099,71.06845293209877
49.320106035889076,71.12264853395062
49.35345296356716,71.15324652777778
49.386799891245246,71.28126350308642
49.420146818923335,71.3972800925926
49.45349374660142,71.51862461419753
49.486840674279506,71.58386766975309
49.52018760195759,71.70807291666667
49.55353452963568,71.77286651234567
49.58688145731376,71.87067322530864
49.62022838499185,71.89693672839506
49.653575312669936,71.8827199074074
49.68692224034802,71.80198688271605
49.72026916802611,71.68334297839506
49.75361609570419,71.52220293209876
49.78696302338228,71.37557291666667
49.820309951060366,71.23890625
49.85365687873845,71.1059587191358
49.88700380641654,70.99325231481481
49.92035073409462,70.88441358024691
49.95369766177271,70.78989004629629
49.98704458945079,70.73639081790124
50.02039151712888,70.69940972222223
50.05373844480697,70.67651427469136
50.08708537248505,70.67586033950617
50.12043230016314,70.69931327160494
50.15377922784122,70.7364274691358
50.18712615551931,70.81921103395062
50.2204730831974,70.90123842592592
50.25382001087548,70.9834375
50.28716693855357,71.08150462962963
50.32051386623165,71.23830632716049
50.35386079390974,71.32403549382715
50.38720772158782,71.43834104938271
50.42055464926591,71.51745370370371
50.453901576944,71.4934413580247
50.48724850462208,71.4257851080247
50.52059543230017,71.36502314814815
50.55394235997825,71.27806712962963
50.58728928765634,71.19703125
50.62063621533443,71.10561921296296
50.65398314301251,71.01584104938271
50.6873300706906,70.91929783950617
50.72067699836868,70.8640625
50.75402392604677,70.81871334876543
50.78737085372485,70.8016975308642
50.82071778140294,70.77313850308641
50.85406470908103,70.75491319444444
50.88741163675911,70.78623842592593
50.9207585644372,70.8376813271605
50.95410549211528,70.85000192901235
50.98745241979337,70.8862287808642
51.02079934747146,70.94817322530864
51.05414627514954,71.03846064814815
51.08749320282763,71.10329475308642
51.12084013050571,71.25253472222222
51.1541870581838,71.37762345679012
51.18753398586188,71.46892554012345
51.22088091353997,71.52539544753087
51.25422784121806,71.79146219135802
51.28757476889614,71.96834104938272
51.32092169657423,72.11916280864197
51.35426862425231,72.25030671296297
51.3876155519304,72.41968171296297
51.420962479608484,72.59562114197531
51.45430940728657,72.72498649691359
51.48765633496466,72.81988425925925
51.52100326264274,72.9410513117284
51.55435019032083,73.0288387345679
51.587697117998914,73.03467206790124
51.621044045677,72.9251986882716
51.65439097335509,72.69232638888889
51.687737901033174,72.46496334876544
51.72108482871126,72.21924575617284
51.754431756389344,71.99805169753087
51.78777868406743,71.78020061728395
51.821125611745515,71.59718942901235
51.854472539423604,71.46338348765433
51.88781946710169,71.31997685185185
51.921166394779775,71.18727816358025
51.95451332245786,71.08836805555555
51.987860250135945,71.03978587962963
52.021207177814034,70.99486304012346
52.05455410549212,71.0209124228395
52.087901033170205,71.04673611111112
52.121247960848294,71.10493827160494
52.154594888526375,71.16793788580247
52.187941816204464,71.31089506172839
52.221288743882546,71.39870949074074
52.254635671560635,71.48472029320988
52.287982599238724,71.54545138888889
52.321329526916806,71.67880979938272
52.354676454594895,71.76479745370371
52.388023382272976,71.90469907407407
52.421370309951065,71.97286072530864
52.454717237629154,72.1609375
52.488064165307236,72.3529050925926
52.521411092985325,72.50109953703704
52.55475802066341,72.62028163580247
52.588104948341496,72.76451774691358
52.62145187601958,72.86689429012345
52.654798803697666,72.94934220679012
52.688145731375755,73.03057291666667
52.72149265905384,73.16098765432099
52.754839586731926,73.22196566358025
52.78818651441001,73.26330632716049
52.821533442088096,73.25208912037037
52.854880369766185,73.18955439814815
52.88822729744427,73.10126929012345
52.921574225122356,72.98534143518519
52.95492115280044,72.83737654320987
52.98826808047853,72.57390817901235
53.02161500815661,72.37333333333333
53.0549619358347,72.25605324074074
53.088308863512786,72.12379243827161
53.12165579119087,72.04107060185186
53.15500271886896,71.97060956790123
53.18834964654704,71.9450212191358
53.22169657422513,71.87514467592592
53.25504350190322,71.89146412037037
53.2883904295813,71.92902199074074
53.32173735725939,72.00240162037036
53.35508428493747,72.0495486111111
53.38843121261556,72.10741898148149
53.42177814029364,72.1568074845679
53.45512506797173,72.20510609567901
53.48847199564982,72.24179783950618
53.5218189233279,72.32005208333334
53.55516585100599,72.37237847222222
53.58851277868407,72.44146412037037
53.62185970636216,72.4861149691358
53.65520663404024,72.63219907407408
53.68855356171833,72.71828703703704
53.72190048939642,72.8208024691358
53.7552474170745,72.87298611111112
53.78859434475259,73.01781442901235
53.82194127243067,73.15259066358024
53.85528820010876,73.30655478395062
53.88863512778685,73.41969328703703
53.92198205546493,73.50653356481482
53.95532898314302,73.47182484567901
53.9886759108211,73.3972550154321
54.02202283849919,73.24996720679012
54.05536976617727,73.13395447530864
54.08871669385536,72.99223186728395
54.12206362153345,72.8563175154321
54.15541054921153,72.70695216049383
54.18875747688962,72.69905285493827
54.2221044045677,72.69030092592592
54.25545133224579,72.67936728395061
54.28879825992388,72.65323302469136
54.32214518760196,72.59771990740741
54.35549211528005,72.52853202160493
54.38883904295813,72.49135609567901
54.42218597063622,72.43884452160493
54.4555328983143,72.44936728395062
54.48887982599239,72.42143904320987
54.52222675367048,72.44201195987654
54.55557368134856,72.43888695987654
54.58892060902665,72.47006944444445
54.62226753670473,72.49258680555556
54.65561446438282,72.53564814814816
54.68896139206091,72.56764660493828
54.72230831973899,72.63027391975308
54.75565524741708,72.66849151234568
54.78900217509516,72.70997299382717
54.82234910277325,72.74608410493828
54.855696030451334,72.86604359567902
54.88904295812942,72.93833912037037
54.92238988580751,72.9702700617284
54.95573681348559,72.95747685185185
54.98908374116368,72.82257523148148
55.022430668841764,72.71546682098766
55.05577759651985,72.53484760802469
55.08912452419794,72.31472993827161
55.122471451876024,72.17425925925926
55.15581837955411,72.00669174382716
55.189165307232194,71.85506172839506
55.22251223491028,71.69340663580248
55.255859162588365,71.49049382716049
55.289206090266454,71.34597800925926
55.32255301794454,71.27399884259259
55.355899945622625,71.17729938271604
55.38924687330071,71.17063078703704
55.422593800978795,71.18253086419753
55.455940728656884,71.22344328703704
55.489287656334966,71.28046875
55.522634584013055,71.36076195987654
55.555981511691144,71.40643132716049
55.589328439369226,71.4365625
55.622675367047314,71.51660686728395
55.656022294725396,71.66903935185185
55.689369222403485,71.78062885802468
55.722716150081574,71.92099922839506
55.756063077759656,71.99150848765431
55.789410005437745,72.14059027777778
55.822756933115826,72.21867669753087
55.856103860793915,72.32819058641975
55.889450788472,72.3946662808642
55.922797716150086,72.53769675925926
55.956144643828175,72.63695408950618
55.98949157150626,72.71278935185185
56.022838499184346,72.78206211419753
56.05618542686243,72.72745563271604
56.089532354540516,72.65626543209876
56.122879282218605,72.5548013117284
56.15622620989669,72.43416087962963
56.189573137574776,72.22253279320988
56.22292006525286,72.06124035493828
56.25626699293095,71.92433063271605
56.28961392060903,71.81069058641975
56.32296084828712,71.67954282407408
56.356307775965206,71.56632137345679
56.38965470364329,71.47100694444444
56.42300163132138,71.39278935185185
56.45634855899946,71.33027970679012
56.48969548667755,71.30027584876544
56.523042414355636,71.30644097222222
56.55638934203372,71.29469328703703
56.58973626971181,71.31704475308642
56.62308319738989,71.37519868827161
56.65643012506798,71.42055169753087
56.68977705274606,71.44300154320987
56.72312398042415,71.57842592592593
56.75647090810224,71.68494791666667
56.78981783578032,71.79472222222222
56.82316476345841,71.83289158950618
56.85651169113649,72.00969907407408
56.88985861881458,72.11213348765432
56.92320554649267,72.23143904320987
56.95655247417075,72.37327353395062
56.98989940184884,72.56060185185186
57.02324632952692,72.64500964506173
57.05659325720501,72.67589699074074
57.08994018488309,72.67255979938271
57.12328711256118,72.53582947530865
57.15663404023927,72.37790895061728
57.18998096791735,72.17330632716049
57.22332789559544,71.96405671296296
57.25667482327352,71.79507330246913
57.29002175095161,71.67440972222222
57.3233686786297,71.72384645061729
57.35671560630778,71.82908371913581
57.39006253398587,71.81648148148147
57.42340946166395,71.78389274691358
57.45675638934204,71.76471064814815
57.49010331702012,71.78210841049383
57.52345024469821,71.81223958333334
57.5567971723763,71.83831018518518
57.59014410005438,71.88969135802469
57.62349102773247,71.94298032407407
57.65683795541055,72.0746199845679
57.69018488308864,72.19972222222222
57.72353181076672,72.29782407407407
57.75687873844481,72.38985532407408
57.7902256661229,72.42436342592593
57.82357259380098,72.41766589506173
57.85691952147907,72.45315200617284
57.89026644915715,72.50244984567901
57.92361337683524,72.52064814814815
57.95696030451333,72.50619212962962
57.99030723219141,72.51650462962964
58.0236541598695,72.53247685185185
58.05700108754758,72.58199074074074
58.09034801522567,72.62635223765432
58.123694942903754,72.65102816358025
58.15704187058184,72.62048032407408
58.19038879825993,72.56208912037037
58.22373572593801,72.51928819444444
58.2570826536161,72.44047839506173
58.290429581294184,72.34005208333333
58.32377650897227,71.98303047839507
58.35712343665036,71.95161265432098
58.39047036432844,71.95567515432099
58.42381729200653,71.93997106481481
58.457164219684614,71.94149112654321
58.4905111473627,71.98252700617284
58.523858075040785,72.06602237654322
58.557205002718874,72.14696180555555
58.59055193039696,72.24995370370371
58.623898858075044,72.36507137345679
58.65724578575313,72.52599729938271
58.690592713431215,72.6800424382716
58.723939641109304,72.86185956790123
58.75728656878739,72.94841820987655
58.790633496465475,73.05690200617283
58.82398042414356,73.15488233024692
58.857327351821645,73.32591435185185
58.890674279499734,73.47897569444444
58.924021207177816,73.6142611882716
58.957368134855905,73.73868827160494
58.990715062533994,73.87605516975309
59.024061990212076,73.89405478395062
59.057408917890164,73.72454282407408
59.090755845568246,73.52947337962964
59.124102773246335,73.36208140432099
59.157449700924424,73.18064429012345
59.190796628602506,73.02262538580247
59.224143556280595,72.93108217592592
59.25749048395868,72.7890663580247
59.290837411636765,72.65852816358024
59.32418433931485,72.61895640432098
59.357531266992936,72.58604938271606
59.390878194671025,72.53373649691358
59.42422512234911,72.50898341049383
59.457572050027196,72.4943499228395
59.49091897770528,72.49608410493828
59.524265905383366,72.51648341049383
59.557612833061455,72.5452025462963
59.59095976073954,72.57891396604938
59.624306688417626,72.61398533950617
59.65765361609571,72.68380208333333
59.6910005437738,72.72290702160494
59.72434747145188,72.8099575617284
59.75769439912997,72.89387538580247
59.791041326808056,72.9530825617284
59.82438825448614,72.99433834876544
59.85773518216423,73.03563271604938
59.89108210984231,73.04180555555556
59.9244290375204,72.94200810185185
59.95777596519848,72.78319637345679
59.99112289287657,72.48581790123457
60.02446982055466,72.2368788580247
60.05781674823274,71.9620563271605
60.09116367591083,71.7537712191358
60.12451060358891,71.64433063271605
60.157857531267,71.60121913580247
60.19120445894509,71.5192399691358
60.22455138662317,71.47900655864197
60.25789831430126,71.43935570987654
60.29124524197934,71.40646219135803
60.32459216965743,71.34616705246914
60.35793909733551,71.34113425925926
60.3912860250136,71.34182484567901
60.42463295269169,71.35136959876543
60.45797988036977,71.40599151234568
60.49132680804786,71.45447145061729
60.52467373572594,71.51882716049383
60.55802066340403,71.5945987654321
60.59136759108212,71.8026388888889
60.6247145187602,71.9224324845679
60.65806144643829,72.05159722222223
60.69140837411637,72.19153356481482
60.72475530179446,72.37554591049383
60.75810222947254,72.50078896604938
60.79144915715063,72.61501543209877
60.82479608482872,72.68840084876543
60.8581430125068,72.83710455246914
60.89148994018489,72.95156828703703
60.92483686786297,73.00165895061728
60.95818379554106,72.9784587191358
60.99153072321915,72.70473186728395
61.02487765089723,72.43803819444445
61.05822457857532,72.25875
61.0915715062534,72.11472993827161
61.12491843393149,72.09112654320988
61.15826536160957,72.05422453703704
61.19161228928766,72.11859567901234
61.22495921696575,74.62053819444445
61.25830614464383,70.79529128086419
61.29165307232192,69.34237268518518
