t_sec,brightness
0.0,69.95809461805555
0.03333425567238517,69.92579752604166
0.06666851134477034,70.31175455729166
0.1000027670171555,70.81447808159722
0.13333702268954067,70.44140733506944
0.16667127836192586,69.99660373263889
0.200005534034311,69.54416558159723
0.23333978970669617,68.970048828125
0.26667404537908135,68.23505750868055
0.30000830105146653,67.48552517361111
0.3333425567238517,66.75387261284722
0.36667681239623684,66.1096875
0.400011068068622,65.30052191840278
0.4333453237410072,64.62470486111111
0.46667957941339233,63.975628255208335
0.5000138350857776,63.40929578993055
0.5333480907581627,62.85441514756945
0.5666823464305478,62.41368272569444
0.6000166021029331,61.998256293402775
0.6333508577753182,61.64026692708333
0.6666851134477034,61.29558810763889
0.7000193691200886,60.93606662326389
0.7333536247924737,60.61769205729167
0.7666878804648589,60.365992838541665
0.800022136137244,60.17614583333334
0.8333563918096292,59.965894097222225
0.8666906474820144,59.82392035590278
0.9000249031543995,59.694134114583335
0.9333591588267847,59.430677083333336
0.9666934144991699,58.903240017361114
1.0000276701715551,58.34362196180555
1.0333619258439402,58.15482964409722
1.0666961815163254,58.047123480902776
1.1000304371887106,58.00978841145833
1.1333646928610956,57.94709092881944
1.1666989485334809,57.88437608506945
1.2000332042058661,57.70345920138889
1.2333674598782511,57.62268988715278
1.2667017155506364,57.556123046875
1.3000359712230216,57.369022352430555
1.3333702268954069,57.46477322048611
1.3667044825677919,57.54756944444444
1.400038738240177,57.94372504340278
1.4333729939125623,58.30509765625
1.4667072495849474,58.639905598958336
1.5000415052573326,58.94412434895833
1.5333757609297178,59.243610026041665
1.5667100166021029,59.28921657986111
1.600044272274488,59.229678819444445
1.6333785279468733,58.595028211805555
1.6667127836192583,58.55112521701389
1.7000470392916436,58.532145182291664
1.7333812949640288,58.4913671875
1.7667155506364138,58.458530815972225
1.800049806308799,58.38260416666667
1.8333840619811843,57.988192274305554
1.8667183176535693,57.414058159722224
1.9000525733259546,57.12397894965278
1.9333868289983398,57.15312825520834
1.966721084670725,57.149250217013886
2.0000553403431103,57.134731987847225
2.0333895960154953,57.13820095486111
2.0667238516878803,57.20944444444444
2.1000581073602658,57.24450954861111
2.133392363032651,57.28269097222222
2.166726618705036,57.29154079861111
2.2000608743774213,57.30921223958333
2.2333951300498063,57.38716905381944
2.2667293857221913,57.494059244791664
2.3000636413945768,57.57119574652778
2.3333978970669618,57.67368923611111
2.366732152739347,57.72953776041667
2.4000664084117322,57.79490559895833
2.4334006640841173,57.83465060763889
2.4667349197565023,57.81160807291667
2.5000691754288877,57.75856011284722
2.5334034311012728,57.65327582465278
2.5667376867736578,57.58662326388889
2.6000719424460432,57.646298828125
2.6334061981184282,57.744365234375
2.6667404537908137,57.79596788194444
2.7000747094631987,57.876845703125
2.7334089651355837,57.46485894097222
2.766743220807969,56.97476888020833
2.800077476480354,56.74494032118056
2.8334117321527392,56.780687934027775
2.8667459878251247,56.81704535590278
2.9000802434975097,56.862703993055554
2.9334144991698947,56.86556640625
2.96674875484228,56.92029730902778
3.000083010514665,56.93308810763889
3.03341726618705,56.94505967881945
3.0667515218594357,56.914829644097225
3.1000857775318207,56.93205403645833
3.1334200332042057,56.956309678819444
3.166754288876591,57.007747395833334
3.200088544548976,57.064982638888885
3.233422800221361,57.14515082465278
3.2667570558937467,57.214435763888886
3.3000913115661317,57.2974609375
3.3334255672385167,57.332783203125
3.366759822910902,57.42726996527778
3.400094078583287,57.51767144097222
3.433428334255672,57.59148546006944
3.4667625899280576,57.73061957465278
3.5000968456004427,57.81080512152778
3.5334311012728277,57.89153103298611
3.566765356945213,57.996410590277776
3.600099612617598,58.095424262152775
3.633433868289983,58.1993359375
3.6667681239623686,58.250621744791665
3.7001023796347536,58.311794704861114
3.7334366353071387,58.38439670138889
3.766770890979524,58.421459418402776
3.800105146651909,57.83683919270833
3.8334394023242946,57.28097330729167
3.8667736579966796,57.19032552083333
3.9001079136690646,57.167383897569444
3.93344216934145,57.20309461805556
3.966776425013835,57.20106336805556
4.0001106806862206,57.20769422743056
4.033444936358605,57.20162868923611
4.066779192030991,57.18283311631944
4.100113447703376,57.15176540798611
4.133447703375761,57.107646484375
4.166781959048146,57.09975477430555
4.2001162147205315,57.12841796875
4.233450470392916,57.14820855034722
4.266784726065302,57.20016384548611
4.300118981737687,57.27751193576389
4.333453237410072,57.33848849826389
4.366787493082457,57.392918836805556
4.4001217487548425,57.45457248263889
4.433456004427227,57.532451171875
4.4667902600996126,57.59678493923611
4.500124515771998,57.682406684027775
4.533458771444383,57.752445746527776
4.566793027116768,57.84962565104167
4.6001272827891535,57.883793402777776
4.633461538461538,57.929950086805555
4.6667957941339235,57.613582899305555
4.700130049806309,57.17152560763889
4.733464305478694,57.12121853298611
4.766798561151079,57.14559136284722
4.8001328168234645,57.323153211805554
4.833467072495849,57.369868706597224
4.8668013281682345,57.42870876736111
4.90013558384062,57.520738932291664
4.9334698395130046,57.53159939236111
4.96680409518539,57.517711588541665
5.0001383508577755,57.50258138020833
5.03347260653016,57.517509765625
5.0668068622025455,57.560107421875
5.100141117874931,57.66938042534722
5.1334753735473155,57.740709635416664
5.166809629219701,57.81638671875
5.2001438848920865,57.88127712673611
5.233478140564471,57.94488823784722
5.2668123962368565,57.977535807291666
5.300146651909242,58.02756510416667
5.333480907581627,58.06327256944444
5.366815163254012,58.12621419270833
5.400149418926397,58.17686306423611
5.433483674598783,58.21458550347222
5.4668179302711675,58.24971896701389
5.500152185943553,58.35512369791667
5.533486441615938,58.121685112847224
5.566820697288323,57.501934678819445
5.600154952960708,57.19536675347222
5.633489208633094,57.16905164930556
5.6668234643054785,57.16966145833333
5.700157719977864,57.186022135416664
5.733491975650249,57.18039605034722
5.766826231322634,57.17101128472222
5.800160486995019,57.16546549479167
5.833494742667405,57.161077473958336
5.866828998339789,57.14075954861111
5.900163254012175,57.12965277777778
5.93349750968456,57.141302083333336
5.966831765356945,57.16684895833333
6.00016602102933,57.20224066840278
6.033500276701716,57.244014756944445
6.0668345323741,57.29127387152778
6.100168788046486,57.339222005208335
6.133503043718871,57.35465060763889
6.166837299391256,57.42939453125
6.200171555063641,57.468998480902776
6.233505810736027,57.531818576388886
6.266840066408411,57.57215169270833
6.300174322080797,57.619397786458336
6.333508577753182,57.67703016493056
6.366842833425567,57.733621961805554
6.400177089097952,57.767314453125
6.433511344770338,57.852756076388886
6.466845600442722,57.821971571180555
6.500179856115108,57.34791232638889
6.533514111787493,56.896337890625
6.566848367459878,56.847485894097225
6.600182623132263,56.89479058159722
6.633516878804649,56.922431640625
6.666851134477033,56.93337131076389
6.700185390149419,56.932452256944444
6.733519645821804,56.972965494791666
6.766853901494189,56.99783094618056
6.800188157166574,56.97767144097222
6.83352241283896,56.96962673611111
6.866856668511344,56.99414171006944
6.90019092418373,57.04635416666667
6.933525179856115,57.13034722222222
6.9668594355285,57.23208550347222
7.000193691200885,57.27841145833333
7.033527946873271,57.341229383680556
7.066862202545655,57.402333984375
7.100196458218041,57.47939127604167
7.133530713890426,57.54339626736111
7.166864969562811,57.61437825520834
7.200199225235196,57.69234700520833
7.233533480907582,57.768388671875
7.266867736579966,57.816073133680554
7.300201992252352,57.580799696180556
7.333536247924737,57.15806640625
7.366870503597122,57.08750108506945
7.400204759269507,57.086236979166664
7.433539014941893,57.16265625
7.466873270614277,57.18670572916667
7.500207526286663,57.21321940104167
7.533541781959048,57.26612521701389
7.566876037631434,57.31497938368056
7.600210293303818,57.30733289930556
7.633544548976204,57.31841254340278
7.666878804648589,57.33882378472222
7.700213060320974,57.43963541666667
7.733547315993359,57.4869921875
7.766881571665745,57.58362630208333
7.800215827338129,57.64234592013889
7.833550083010515,57.69134657118055
7.8668843386829,57.74929253472222
7.900218594355285,57.82868055555556
7.93355285002767,57.879641927083334
7.966887105700056,57.94481770833333
8.000221361372441,57.995198567708336
8.033555617044826,58.075954861111114
8.06688987271721,58.12392469618055
8.100224128389597,58.16769965277778
8.133558384061981,58.21536241319444
8.166892639734366,58.28821397569445
8.200226895406752,58.32643120659722
8.233561151079137,58.363728298611115
8.266895406751521,58.40025607638889
8.300229662423908,58.41184136284722
8.333563918096292,58.002735460069445
8.366898173768677,57.47778971354167
8.400232429441063,57.385259331597226
8.433566685113448,57.37162000868056
8.466900940785832,57.34004340277778
8.500235196458219,57.31788302951389
8.533569452130603,57.30425347222222
8.566903707802988,57.28046440972222
8.600237963475374,57.26748806423611
8.633572219147759,57.24801540798611
8.666906474820143,57.232434895833336
8.70024073049253,57.231792534722224
8.733574986164914,57.25698025173611
8.766909241837299,57.30074327256944
8.800243497509685,57.35208767361111
8.83357775318207,57.41075086805556
8.866912008854454,57.46475802951389
8.90024626452684,57.558359375
8.933580520199225,57.646901041666666
8.96691477587161,57.72253472222222
9.000249031543996,57.7859765625
9.03358328721638,57.896266276041665
9.066917542888765,57.95853190104167
9.100251798561152,58.08706814236111
9.133586054233536,58.15635091145833
9.16692030990592,58.224398871527775
9.200254565578307,58.315540364583335
9.233588821250692,58.347935112847225
9.266923076923076,57.946560329861114
9.300257332595463,57.50236653645833
9.333591588267847,57.451497395833336
9.366925843940232,57.44931749131945
9.400260099612618,57.56958767361111
9.433594355285003,57.603037109375
9.466928610957387,57.60337890625
9.500262866629773,57.67525607638889
9.533597122302158,57.68847764756944
9.566931377974543,57.674480251736114
9.600265633646929,57.64979600694444
9.633599889319314,57.65241970486111
9.666934144991698,57.77439670138889
9.700268400664084,57.82606770833333
9.733602656336469,57.834559461805554
9.766936912008854,57.886396484375
9.80027116768124,57.90032877604167
9.833605423353625,57.94017686631945
9.866939679026009,57.972340494791666
9.900273934698395,58.041490885416664
9.93360819037078,58.131009114583335
9.966942446043165,58.28291883680556
10.000276701715551,58.36848415798611
10.033610957387936,58.467734375
10.06694521306032,58.609538845486114
10.100279468732706,58.76010091145833
10.133613724405091,58.842022569444445
10.166947980077476,58.98577039930556
10.200282235749862,59.14557400173611
10.233616491422246,59.207622612847224
10.266950747094631,59.32371527777778
10.300285002767017,59.38953667534722
10.333619258439402,58.97682183159722
10.366953514111787,58.33641818576389
10.400287769784173,58.19144205729167
10.433622025456557,58.17237847222222
10.466956281128942,58.151790364583334
10.500290536801328,58.113530815972226
10.533624792473713,57.98248589409722
10.566959048146098,57.84789171006945
10.600293303818484,57.796279296875
10.633627559490868,57.74208875868055
10.666961815163255,57.51360134548611
10.70029607083564,57.44874674479167
10.733630326508024,57.41330512152778
10.76696458218041,57.41578884548611
10.800298837852795,57.410609809027775
10.83363309352518,57.412150607638885
10.866967349197566,57.41149848090278
10.90030160486995,57.43904839409722
10.933635860542335,57.439044053819444
10.966970116214721,57.450478515625
11.000304371887106,57.45522352430555
11.03363862755949,57.46271267361111
11.066972883231877,57.469521484375
11.100307138904261,57.499454210069445
11.133641394576646,57.52076931423611
11.166975650249032,57.5424609375
11.200309905921417,57.56774848090278
11.233644161593801,57.61671440972222
11.266978417266188,57.66868706597222
11.300312672938572,57.721455078125
11.333646928610957,57.78402669270833
11.366981184283343,57.85440646701389
11.400315439955728,57.835927734375
11.433649695628112,57.19767903645833
11.466983951300499,56.79031467013889
11.500318206972883,56.76694444444445
11.533652462645268,56.82638671875
11.566986718317654,56.843302951388885
11.600320973990039,56.880421006944445
11.633655229662423,56.906107855902775
11.66698948533481,56.93136067708333
11.700323741007194,56.949169921875
11.733657996679579,56.89791015625
11.766992252351965,56.870814887152775
11.80032650802435,56.89543728298611
11.833660763696734,56.940235460069445
11.86699501936912,56.98823459201389
11.900329275041505,57.073008897569444
11.93366353071389,57.13077365451389
11.966997786386276,57.22747829861111
12.00033204205866,57.3105859375
12.033666297731045,57.43327365451389
12.067000553403432,57.45124131944444
12.100334809075816,57.52871744791667
12.1336690647482,57.60339084201389
12.167003320420587,57.70532986111111
12.200337576092972,57.822841796875
12.233671831765356,57.876729600694446
12.267006087437743,57.915516493055556
12.300340343110127,58.012682291666664
12.333674598782512,58.02322265625
12.367008854454898,57.569803602430554
12.400343110127283,57.13857204861111
12.433677365799667,57.089039713541666
12.467011621472054,57.13294704861111
12.500345877144438,57.17355902777778
12.533680132816823,57.19293185763889
12.56701438848921,57.22212239583333
12.600348644161594,57.25823459201389
12.633682899833978,57.28857530381944
12.667017155506365,57.287731119791665
12.70035141117875,57.296391059027776
12.733685666851134,57.31855577256945
12.76701992252352,57.357356770833334
12.800354178195905,57.43900933159722
12.83368843386829,57.541576605902776
12.867022689540676,57.60180881076389
12.90035694521306,57.65332790798611
12.933691200885445,57.737805989583336
12.967025456557831,57.83083224826389
13.000359712230216,57.87571831597222
13.0336939679026,57.942845052083335
13.067028223574987,57.97603624131944
13.100362479247371,58.05665798611111
13.133696734919756,58.101092664930555
13.167030990592142,58.172607421875
13.200365246264527,58.24554578993055
13.233699501936911,58.28472113715278
13.267033757609298,58.23619357638889
13.300368013281682,57.55289496527778
13.333702268954067,57.126947699652774
13.367036524626453,57.033863932291666
13.400370780298838,57.053111979166665
13.433705035971222,57.067700737847225
13.467039291643609,57.048726128472225
13.500373547315993,57.04052083333333
13.533707802988378,57.052212456597225
13.567042058660764,57.07777235243056
13.600376314333149,57.06417209201389
13.633710570005533,57.073642578125
13.66704482567792,57.08132161458333
13.700379081350304,57.13796332465278
13.733713337022689,57.220393880208334
13.767047592695075,57.29918836805555
13.80038184836746,57.360279947916666
13.833716104039844,57.444296875
13.86705035971223,57.50187717013889
13.900384615384615,57.5801953125
13.933718871057,57.62901801215278
13.967053126729386,57.68121202256945
14.00038738240177,57.72792860243055
14.033721638074155,57.778949652777776
14.067055893746542,57.84796766493056
14.100390149418926,57.939181857638886
14.13372440509131,57.98591688368055
14.167058660763697,58.08396701388889
14.200392916436082,58.08980577256944
14.233727172108466,57.92830512152778
14.267061427780853,57.33850260416666
14.300395683453237,57.05181640625
14.333729939125622,57.0634375
14.367064194798008,57.10368381076389
14.400398450470393,57.11758572048611
14.433732706142777,57.140210503472225
14.467066961815163,57.185092230902775
14.500401217487548,57.224300130208334
14.533735473159933,57.232754991319446
14.567069728832319,57.23525933159722
14.600403984504704,57.23444118923611
14.633738240177088,57.24325629340278
14.667072495849474,57.269207899305556
14.700406751521859,57.39666449652778
14.733741007194244,57.441341145833334
14.76707526286663,57.49776258680556
14.800409518539015,57.55644965277778
14.8337437742114,57.69712022569445
14.867078029883785,57.77860785590278
14.90041228555617,57.84426323784722
14.933746541228555,57.90360460069444
14.967080796900941,57.976039496527775
15.000415052573326,58.090947265625
15.033749308245712,58.16331271701389
15.067083563918096,58.226412760416665
15.100417819590481,58.32664388020833
15.133752075262867,58.35072916666667
15.167086330935252,58.094482421875
15.200420586607637,57.559443359375
15.233754842280023,57.28961154513889
15.267089097952407,57.293910590277775
15.300423353624792,57.32050347222222
15.333757609297178,57.33634874131945
15.367091864969563,57.345645616319445
15.400426120641947,57.371962890625
15.433760376314334,57.39395833333333
15.467094631986718,57.396487630208334
15.500428887659103,57.39953342013889
15.53376314333149,57.40291666666667
15.567097399003874,57.42828125
15.600431654676258,57.51857638888889
15.633765910348645,57.557323133680555
15.66710016602103,57.622067057291666
15.700434421693414,57.692279730902776
15.7337686773658,57.74174262152778
15.767102933038185,57.84719184027778
15.80043718871057,57.892673611111114
15.833771444382956,57.93183159722222
15.86710570005534,57.97938802083333
15.900439955727725,58.05321397569445
15.933774211400111,58.11195095486111
15.967108467072496,58.17845160590278
16.000442722744882,58.23199001736111
16.033776978417265,58.33088758680555
16.06711123408965,58.38199001736111
16.100445489762038,58.444931640625
16.13377974543442,58.47501302083333
16.167114001106807,58.52682508680556
16.200448256779193,58.57269097222222
16.233782512451576,58.509593098958334
16.267116768123962,57.841426866319445
16.30045102379635,57.38043728298611
16.33378527946873,57.367932942708336
16.367119535141118,57.370584852430554
16.400453790813504,57.371411675347225
16.433788046485887,57.364711371527775
16.467122302158273,57.35000651041667
16.50045655783066,57.37072699652778
16.533790813503042,57.36469943576389
16.56712506917543,57.36597439236111
16.600459324847815,57.36124348958333
16.633793580520198,57.36464192708333
16.667127836192584,57.37716796875
16.70046209186497,57.441435546875
16.733796347537353,57.512201605902774
16.76713060320974,57.562041015625
16.800464858882126,57.595119357638886
16.83379911455451,57.64312065972222
16.867133370226895,57.6975
16.90046762589928,57.76178168402778
16.933801881571664,57.81713975694444
16.96713613724405,57.9361328125
17.000470392916437,57.98381944444444
17.03380464858882,58.05032335069444
17.067138904261206,58.17443576388889
17.100473159933593,58.22190212673611
17.133807415605975,57.88623914930555
17.16714167127836,57.42103407118056
17.200475926950748,57.297298177083334
17.23381018262313,57.308269314236114
17.267144438295517,57.36235026041667
17.300478693967904,57.40103732638889
17.333812949640286,57.42424696180556
17.367147205312673,57.469306640625
17.40048146098506,57.47830403645833
17.433815716657442,57.48767361111111
17.46714997232983,57.488125
17.500484228002215,57.47764539930556
17.533818483674597,57.482144097222225
17.567152739346984,57.55719292534722
17.60048699501937,57.62610568576389
17.633821250691753,57.714848090277776
17.66715550636414,57.753155381944445
17.700489762036526,57.82948459201389
17.73382401770891,57.883129340277776
17.767158273381295,57.91990668402778
17.80049252905368,57.98037543402778
17.833826784726064,58.0619921875
17.86716104039845,58.097973090277776
17.900495296070837,58.17398871527778
17.93382955174322,58.28949110243055
17.967163807415606,58.2680859375
18.000498063087992,57.723887803819444
18.033832318760375,57.21636176215278
18.06716657443276,57.186978081597225
18.100500830105148,57.18262912326389
18.13383508577753,57.19249565972222
18.167169341449917,57.177836371527775
18.200503597122303,57.188046875
18.233837852794686,57.201824001736114
18.267172108467072,57.20240125868055
18.30050636413946,57.196299913194444
18.33384061981184,57.20734483506944
18.367174875484228,57.21246202256945
18.400509131156614,57.228946397569445
18.433843386828997,57.27844401041666
18.467177642501383,57.38141384548611
18.50051189817377,57.425883246527775
18.533846153846152,57.486307508680554
18.56718040951854,57.571360677083334
18.600514665190925,57.63153537326389
18.633848920863308,57.69674153645833
18.667183176535694,57.72866644965278
18.70051743220808,57.81872612847222
18.733851687880463,57.9015625
18.76718594355285,57.97009874131945
18.800520199225236,58.00957790798611
18.83385445489762,58.105740017361114
18.867188710570005,58.19461588541667
18.90052296624239,58.266865234375
18.933857221914774,58.31739691840278
18.96719147758716,58.385838758680556
19.000525733259547,58.440281032986114
19.03385998893193,58.465304904513886
19.067194244604316,57.98406684027778
19.100528500276702,57.41191840277778
19.133862755949085,57.25941731770833
19.16719701162147,57.25336697048611
19.200531267293858,57.248149956597224
19.23386552296624,57.26827799479167
19.267199778638627,57.25176215277778
19.300534034311013,57.25989691840278
19.333868289983396,57.25595052083333
19.367202545655783,57.25495985243055
19.40053680132817,57.24729275173611
19.43387105700055,57.269397786458335
19.467205312672938,57.26754014756944
19.500539568345324,57.30204535590278
19.533873824017707,57.363536241319444
19.567208079690094,57.43201714409722
19.60054233536248,57.46637912326389
19.633876591034863,57.522255859375
19.66721084670725,57.62588541666667
19.700545102379635,57.679866536458334
19.733879358052018,57.71546983506944
19.767213613724405,57.810611979166666
19.80054786939679,57.90490234375
19.833882125069174,57.956689453125
19.86721638074156,58.018748914930555
19.900550636413946,58.10583441840278
19.93388489208633,58.143221571180554
19.967219147758716,58.259991319444445
20.000553403431102,58.06320095486111
20.033887659103485,57.50062065972222
20.06722191477587,57.219059244791666
20.100556170448257,57.24302951388889
20.13389042612064,57.277545572916665
20.167224681793027,57.28717881944444
20.200558937465413,57.319637586805555
20.233893193137796,57.35322591145833
20.267227448810182,57.37190321180555
20.30056170448257,57.38395724826389
20.33389596015495,57.378360460069445
20.367230215827338,57.366665581597225
20.400564471499724,57.37092013888889
20.433898727172107,57.40880425347222
20.467232982844493,57.53122612847222
20.50056723851688,57.575168185763886
20.533901494189262,57.593654513888886
20.56723574986165,57.693118489583334
20.600570005534035,57.756740451388886
20.633904261206418,57.79743381076389
20.667238516878804,57.819716796875
20.70057277255119,57.872411024305556
20.733907028223573,57.90314236111111
20.76724128389596,57.92614149305555
20.800575539568346,57.95130967881944
20.83390979524073,58.061940104166666
20.867244050913115,58.14550889756944
20.9005783065855,58.188885633680556
20.933912562257884,58.24802408854167
20.96724681793027,58.09384114583333
21.000581073602657,57.477214626736114
21.03391532927504,57.14508680555556
21.067249584947426,57.12377821180556
21.100583840619812,57.11884440104166
21.133918096292195,57.134471571180555
21.16725235196458,57.13643880208333
21.200586607636968,57.14096788194445
21.23392086330935,57.14044921875
21.267255118981737,57.154644097222224
21.300589374654123,57.16722439236111
21.33392363032651,57.15900282118056
21.367257885998892,57.17368815104167
21.40059214167128,57.21741427951389
21.433926397343665,57.335771484375
21.467260653016048,57.384203559027775
21.500594908688434,57.445546875
21.53392916436082,57.523931206597226
21.567263420033203,57.59464192708333
21.60059767570559,57.6806640625
21.633931931377976,57.768140190972225
21.66726618705036,57.84578776041667
21.700600442722745,57.90596788194444
21.73393469839513,57.95285807291667
21.767268954067514,58.054666883680554
21.8006032097399,58.13680338541667
21.833937465412287,58.197360026041665
21.86727172108467,58.243817274305556
21.900605976757056,58.32140299479167
21.933940232429443,58.27501953125
21.967274488101825,57.61872829861111
22.00060874377421,57.20078993055556
22.033942999446598,57.126806640625
22.06727725511898,57.12050130208333
22.100611510791367,57.11723307291667
22.133945766463754,57.08773111979167
22.167280022136136,57.04315972222222
22.200614277808523,57.05671006944444
22.23394853348091,57.07166558159722
22.267282789153292,57.072705078125
22.300617044825678,57.094541015625
22.333951300498065,57.097454427083335
22.367285556170447,57.199214409722224
22.400619811842834,57.276805555555555
22.43395406751522,57.41314995659722
22.467288323187603,57.475903862847225
22.50062257885999,57.588079427083336
22.533956834532376,57.651095920138886
22.56729109020476,57.77966037326389
22.600625345877145,57.88915798611111
22.63395960154953,57.98615993923611
22.667293857221914,58.081225043402775
22.7006281128943,58.17508463541667
22.733962368566687,58.26667751736111
22.76729662423907,58.347072482638886
22.800630879911456,58.44958767361111
22.833965135583842,58.463365885416664
22.867299391256225,57.96934353298611
22.90063364692861,57.466547309027774
22.933967902600997,57.237445746527776
22.96730215827338,57.24863606770833
23.000636413945767,57.27837999131945
23.033970669618153,57.29993489583333
23.067304925290536,57.32885959201389
23.100639180962922,57.37622287326389
23.13397343663531,57.403251953125
23.16730769230769,57.39833333333333
23.200641947980078,57.38538628472222
23.233976203652464,57.39500542534722
23.267310459324847,57.53632052951389
23.300644714997233,57.61056749131944
23.33397897066962,57.67078993055556
23.367313226342002,57.782924262152775
23.40064748201439,57.8392578125
23.433981737686775,57.913395182291666
23.467315993359158,57.977854817708334
23.500650249031544,58.09918836805556
23.53398450470393,58.255695529513886
23.567318760376313,58.39228624131945
23.6006530160487,58.49630859375
23.633987271721086,58.62454427083333
23.66732152739347,58.73080295138889
23.700655783065855,58.78790581597222
23.73399003873824,58.872897135416665
23.767324294410624,58.95267361111111
23.80065855008301,58.87023763020834
23.833992805755397,58.23473958333334
23.86732706142778,57.6607421875
23.900661317100166,57.59130642361111
23.933995572772552,57.563907335069445
23.967329828444935,57.55383029513889
24.00066408411732,57.53788519965278
24.033998339789708,57.53103732638889
24.06733259546209,57.53653645833333
24.100666851134477,57.55508463541667
24.134001106806863,57.53994032118055
24.167335362479246,57.529263237847225
24.200669618151633,57.51859809027778
24.23400387382402,57.60058810763889
24.2673381294964,57.66652669270833
24.300672385168788,57.735980902777776
24.334006640841174,57.816826171875
24.367340896513557,57.87241536458333
24.400675152185944,57.977037760416664
24.43400940785833,58.05833441840278
24.467343663530713,58.10650933159722
24.5006779192031,58.22297526041667
24.534012174875485,58.246356336805555
24.567346430547868,58.37493381076389
24.600680686220255,58.48980577256945
24.63401494189264,58.57379774305556
24.667349197565024,58.67870442708333
24.70068345323741,58.75407335069445
24.734017708909796,58.82254665798611
24.76735196458218,58.88870008680556
24.800686220254565,58.935641276041665
24.834020475926952,58.976583116319446
24.867354731599335,59.02584743923611
24.90068898727172,59.03411892361111
24.934023242944107,59.03676106770833
24.96735749861649,58.45402669270833
25.000691754288876,57.665540364583336
25.034026009961263,57.17182834201389
25.067360265633646,57.11663845486111
25.100694521306032,57.13316840277778
25.13402877697842,57.101751302083336
25.1673630326508,57.074992404513885
25.200697288323187,57.044841579861114
25.234031543995574,57.02883246527778
25.267365799667957,56.98699761284722
25.300700055340343,56.92027994791667
25.33403431101273,56.89776584201389
25.367368566685112,56.913335503472226
25.4007028223575,56.99979600694444
25.434037078029885,57.149737413194444
25.467371333702268,57.22084201388889
25.500705589374654,57.33714409722222
25.53403984504704,57.45670355902778
25.567374100719423,57.52994357638889
25.60070835639181,57.60110568576389
25.634042612064196,57.73966796875
25.66737686773658,57.876871744791664
25.700711123408965,57.97182291666667
25.73404537908135,58.027881944444445
25.767379634753734,58.12788519965278
25.80071389042612,58.205087890625
25.834048146098507,58.30284939236111
25.86738240177089,58.388782552083335
25.900716657443276,58.52290256076389
25.934050913115662,58.51362087673611
25.967385168788045,57.80829752604166
26.00071942446043,57.19341796875
26.034053680132818,56.9854296875
26.0673879358052,56.93620985243056
26.100722191477587,56.963961588541665
26.134056447149973,56.99313910590278
26.167390702822356,57.019442274305554
26.200724958494742,57.100666232638886
26.23405921416713,57.14563802083333
26.26739346983951,57.137569444444445
26.300727725511898,57.127086588541665
26.334061981184284,57.142887369791666
26.367396236856667,57.20098741319445
26.400730492529053,57.34938259548611
26.43406474820144,57.42811306423611
26.467399003873822,57.542507595486114
26.50073325954621,57.64039496527778
26.534067515218595,57.72489800347222
26.567401770890978,57.83245659722222
26.600736026563364,57.935087890625
26.63407028223575,58.019535590277776
26.667404537908133,58.06976019965278
26.70073879358052,58.13458333333333
26.734073049252906,58.205647786458336
26.76740730492529,58.315944010416665
26.800741560597675,58.402485894097225
26.83407581627006,58.52062282986111
26.867410071942444,58.55195095486111
26.90074432761483,58.17143446180555
26.934078583287217,57.369440104166664
26.9674128389596,56.827366536458335
27.000747094631986,56.70905924479167
27.034081350304373,56.708393012152776
27.067415605976755,56.73730685763889
27.100749861649142,56.74827907986111
27.134084117321528,56.76199110243056
27.16741837299391,56.795506727430556
27.200752628666297,56.80075629340278
27.234086884338684,56.78755099826389
27.267421140011066,56.783841145833335
27.300755395683453,56.80508246527778
27.33408965135584,56.84985243055556
27.367423907028222,56.98578342013889
27.40075816270061,57.12935655381944
27.434092418372995,57.25336697048611
27.467426674045377,57.35787326388889
27.500760929717764,57.48934895833333
27.53409518539015,57.60267035590278
27.567429441062533,57.70261176215278
27.60076369673492,57.79743381076389
27.634097952407306,57.887249348958335
27.66743220807969,57.99171875
27.700766463752075,58.11180989583333
27.73410071942446,58.19941840277778
27.767434975096844,58.312337239583336
27.80076923076923,58.408817274305555
27.834103486441617,58.45857855902778
27.867437742114,57.834391276041664
27.900771997786386,57.06466796875
27.934106253458772,56.65154296875
27.967440509131155,56.66239149305556
28.00077476480354,56.66135959201389
28.034109020475928,56.700221354166665
28.06744327614831,56.73237847222222
28.100777531820697,56.80242947048611
28.134111787493083,56.84115668402778
28.167446043165466,56.851245659722224
28.200780298837852,56.834248046875
28.23411455451024,56.841839192708335
28.26744881018262,56.885646701388886
28.300783065855008,57.04815212673611
28.334117321527394,57.17530490451389
28.367451577199777,57.314738498263885
28.400785832872163,57.41588758680555
28.43412008854455,57.566982421875
28.467454344216932,57.69511284722222
28.50078859988932,57.81796875
28.534122855561705,57.947407769097225
28.567457111234088,58.03609266493056
28.600791366906474,58.16008029513889
28.63412562257886,58.285571831597224
28.667459878251243,58.43986436631945
28.70079413392363,58.56191080729167
28.734128389596016,58.31018988715278
28.7674626452684,57.55088541666667
28.800796900940785,56.93804144965278
28.83413115661317,56.803525390625
28.867465412285554,56.83809461805556
28.90079966795794,56.870455729166665
28.934133923630327,56.90031575520833
28.96746817930271,56.95461480034722
29.000802434975096,57.00829427083333
29.034136690647482,57.01671115451389
29.067470946319865,57.008190104166665
29.10080520199225,56.995731336805555
29.134139457664638,57.0260546875
29.16747371333702,57.163364800347225
29.200807969009407,57.26153428819445
29.234142224681793,57.44399197048611
29.267476480354176,57.523701171875
29.300810736026563,57.654788411458334
29.33414499169895,57.736028645833336
29.36747924737133,57.811375868055556
29.400813503043718,57.92717664930556
29.434147758716104,58.03543619791667
29.467482014388487,58.11530924479167
29.500816270060874,58.2380078125
29.53415052573326,58.346279296875
29.567484781405643,58.44834635416667
29.60081903707803,58.543795572916665
29.634153292750415,58.6609765625
29.6674875484228,58.80255642361111
29.700821804095185,58.74767469618055
29.73415605976757,57.939227430555555
29.767490315439954,57.134736328125
29.80082457111234,56.68301323784722
29.834158826784726,56.664721137152775
29.86749308245711,56.678187934027775
29.900827338129496,56.681879340277774
29.934161593801882,56.67885416666667
29.96749584947427,56.680897352430556
30.00083010514665,56.68311306423611
30.034164360819037,56.69603298611111
30.067498616491424,56.69525824652778
30.100832872163807,56.68807074652778
30.134167127836193,56.688642578125
30.16750138350858,56.83804470486111
30.200835639180962,56.9871875
30.23416989485335,57.12978515625
30.267504150525735,57.220716145833336
30.300838406198118,57.36630859375
30.334172661870504,57.484033203125
30.36750691754289,57.59058376736111
30.400841173215273,57.67894856770833
30.43417542888766,57.83615668402778
30.467509684560046,57.90639322916667
30.50084394023243,57.998248697916665
30.534178195904815,58.11279188368056
30.5675124515772,58.266116536458334
30.600846707249584,58.27116319444445
30.63418096292197,57.60899631076389
30.667515218594357,56.879150390625
30.70084947426674,56.51776041666667
30.734183729939126,56.50029079861111
30.767517985611512,56.54487413194445
30.800852241283895,56.64031792534722
30.83418649695628,56.73731336805555
30.867520752628668,56.833896484375
30.90085500830105,56.87031792534722
30.934189263973437,56.85282986111111
30.967523519645823,56.87847873263889
31.000857775318206,57.00982747395833
31.034192030990592,57.21278645833333
31.06752628666298,57.39517578125
31.10086054233536,57.59154405381945
31.134194798007748,57.833466796875
31.167529053680134,58.11737521701389
31.200863309352517,58.36209201388889
31.234197565024903,58.54637044270833
31.26753182069729,58.68150065104167
31.300866076369672,58.74288736979167
31.33420033204206,58.80475368923611
31.367534587714445,58.87703559027778
31.400868843386828,58.893525390625
31.434203099059214,58.916842447916665
31.4675373547316,58.970356987847225
31.500871610403983,59.042629123263886
31.53420586607637,58.841791449652774
31.567540121748756,57.90626953125
31.60087437742114,57.09858615451389
31.634208633093525,56.75989691840278
31.66754288876591,56.78208116319445
31.700877144438294,56.838541666666664
31.73421140011068,56.852239583333336
31.767545655783067,56.871988932291664
31.80087991145545,57.01088541666667
31.834214167127836,57.055346137152775
31.867548422800223,57.05781032986111
31.900882678472605,57.058490668402776
31.93421693414499,57.06462131076389
31.967551189817378,57.22456163194445
32.000885445489764,57.33851453993056
32.034219701162144,57.486315104166664
32.06755395683453,57.595164930555555
32.100888212506916,57.66689127604167
32.1342224681793,57.75602864583333
32.16755672385169,57.83115451388889
32.200890979524075,57.885309244791664
32.234225235196455,57.92685004340278
32.26755949086884,58.043369140625
32.30089374654123,58.11505099826389
32.334228002213614,58.20097330729167
32.367562257886,58.29920464409722
32.400896513558386,58.36912109375
32.434230769230766,58.44274739583334
32.46756502490315,58.551686197916666
32.50089928057554,58.65542751736111
32.534233536247925,58.74379014756944
32.56756779192031,58.837459852430555
32.6009020475927,58.971002604166664
32.63423630326508,58.93608181423611
32.66757055893746,58.03068467881945
32.70090481460985,57.04548611111111
32.734239070282236,56.53130425347222
32.76757332595462,56.475499131944446
32.80090758162701,56.49607964409722
32.83424183729939,56.509768880208334
32.867576092971774,56.51795355902778
32.90091034864416,56.52545355902778
32.93424460431655,56.533612196180556
32.96757885998893,56.54835503472222
33.00091311566132,56.46385199652778
33.0342473713337,56.45951714409722
33.067581627006085,56.47038953993056
33.10091588267847,56.631932508680556
33.13425013835086,56.812930772569445
33.167584394023244,57.01984375
33.20091864969563,57.14891167534722
33.23425290536801,57.28477322048611
33.267587161040396,57.427734375
33.30092141671278,57.574765625
33.33425567238517,57.717373046875
33.367589928057555,57.881625434027775
33.40092418372994,58.037340494791664
33.43425843940232,58.19700954861111
33.46759269507471,58.30176649305555
33.50092695074709,58.48667643229167
33.53426120641948,58.62796549479167
33.567595462091866,58.339769965277775
33.60092971776425,57.412841796875
33.63426397343663,56.67241753472222
33.66759822910902,56.42925998263889
33.700932484781404,56.464984809027776
33.73426674045379,56.501491970486114
33.76760099612618,56.55833224826389
33.80093525179856,56.65229926215278
33.83426950747094,56.755244140625
33.86760376314333,56.762600911458335
33.900938018815715,56.715589192708336
33.9342722744881,56.69528211805556
33.96760653016049,56.675836588541664
34.000940785832874,56.70579535590278
34.03427504150525,56.84041558159722
34.06760929717764,56.97717990451389
34.100943552850026,57.09953993055556
34.13427780852241,57.17650716145833
34.1676120641948,57.33776909722222
34.200946319867185,57.441411675347226
34.23428057553957,57.543225911458336
34.26761483121195,57.685818142361114
34.30094908688434,57.81285047743056
34.33428334255672,57.89742838541667
34.36761759822911,58.05331271701389
34.400951853901496,58.170397135416664
34.43428610957388,58.353045789930555
34.46762036524626,58.502315538194445
34.50095462091865,58.27837131076389
34.534288876591035,57.32765950520833
34.56762313226342,56.49239474826389
34.60095738793581,56.162395833333335
34.634291643608194,56.19866753472222
34.66762589928057,56.228016493055556
34.70096015495296,56.250529513888885
34.734294410625346,56.284184027777776
34.76762866629773,56.35193901909722
34.80096292197012,56.39343424479166
34.834297177642505,56.421077473958334
34.867631433314884,56.430514322916665
34.90096568898727,56.44908962673611
34.93429994465966,56.536960720486114
34.96763420033204,56.75384440104167
35.00096845600443,56.93683051215278
35.034302711676816,57.068209635416665
35.067636967349195,57.187160373263886
35.10097122302158,57.34143229166666
35.13430547869397,57.42070638020834
35.167639734366354,57.50943142361111
35.20097399003874,57.58972222222222
35.23430824571113,57.7047265625
35.267642501383506,57.80805338541666
35.30097675705589,57.92875434027778
35.33431101272828,58.037358940972226
35.367645268400665,58.22250217013889
35.40097952407305,58.33361002604167
35.43431377974544,58.48655707465278
35.46764803541782,58.69899956597222
35.5009822910902,58.66230143229166
35.53431654676259,57.97670789930555
35.567650802434976,56.96728407118056
35.60098505810736,56.28893120659722
35.63431931377975,56.16632378472222
35.66765356945213,56.24622178819445
35.700987825124514,56.282060546875
35.7343220807969,56.33522894965278
35.76765633646929,56.34759440104167
35.80099059214167,56.40505750868056
35.83432484781406,56.43537326388889
35.86765910348644,56.40678168402778
35.900993359158825,56.39141818576389
35.93432761483121,56.41586371527778
35.9676618705036,56.651600477430556
36.000996126175984,56.82090494791667
36.03433038184837,56.92979709201389
36.06766463752075,57.11649088541667
36.100998893193136,57.224150390625
36.13433314886552,57.376078559027775
36.16766740453791,57.463709852430554
36.201001660210295,57.597711588541664
36.23433591588268,57.734713541666665
36.26767017155506,57.83169487847222
36.30100442722745,58.02812282986111
36.33433868289983,58.12103949652778
36.36767293857222,58.250635850694444
36.401007194244606,58.393368055555555
36.43434144991699,58.49744466145833
36.46767570558937,58.03444769965278
36.50100996126176,57.08615342881944
36.534344216934144,56.368266059027775
36.56767847260653,56.162814670138886
36.60101272827892,56.240284288194445
36.6343469839513,56.25832248263889
36.66768123962368,56.287264539930554
36.70101549529607,56.329691840277775
36.734349750968455,56.43158203125
36.76768400664084,56.477458767361114
36.80101826231323,56.48357638888889
36.834352517985614,56.507237413194446
36.867686773657994,56.56009114583333
36.90102102933038,56.845048828125
36.934355285002766,56.97159396701389
36.96768954067515,57.14881184895833
37.00102379634754,57.26290256076389
37.034358052019925,57.358359375
37.067692307692305,57.45613172743055
37.10102656336469,57.551227213541665
37.13436081903708,57.683452690972224
37.167695074709464,57.81735894097222
37.20102933038185,57.92309678819444
37.234363586054236,58.061788194444446
37.267697841726616,58.1876953125
37.301032097399,58.333829210069446
37.33436635307139,58.518641493055554
37.367700608743775,58.53830186631944
37.40103486441616,57.92200629340278
37.43436912008855,56.934827473958336
37.46770337576093,56.34676323784722
37.50103763143331,56.26451063368056
37.5343718871057,56.347567274305554
37.567706142778086,56.36477756076389
37.60104039845047,56.38752061631944
37.63437465412286,56.44513780381944
37.66770890979524,56.51619791666667
37.701043165467624,56.518963758680556
37.73437742114001,56.49565755208334
37.7677116768124,56.50751736111111
37.80104593248478,56.570415581597224
37.83438018815717,56.829970703125
37.86771444382955,57.004597439236115
37.901048699501935,57.150302734375
37.93438295517432,57.207484809027775
37.96771721084671,57.27117621527778
38.001051466519094,57.37365451388889
38.03438572219148,57.42876736111111
38.06771997786386,57.53562825520833
38.101054233536246,57.634250217013886
38.13438848920863,57.750415581597224
38.16772274488102,57.91637586805555
38.201057000553405,58.09180447048611
38.23439125622579,58.298994140625
38.26772551189817,58.242076822916665
38.30105976757056,57.45270399305556
38.33439402324294,56.64551974826389
38.36772827891533,56.36650607638889
38.401062534587716,56.37664279513889
38.4343967902601,56.529949001736114
38.46773104593248,56.61461697048611
38.50106530160487,56.754869791666664
38.534399557277254,56.91693576388889
38.56773381294964,56.917042100694445
38.60106806862203,56.90507486979167
38.63440232429441,56.87528862847222
38.66773657996679,56.860935329861114
38.70107083563918,57.0919921875
38.734405091311565,57.242848307291666
38.76773934698395,57.4021875
38.80107360265634,57.49830837673611
38.834407858328724,57.615948350694445
38.8677421140011,57.708643663194444
38.90107636967349,57.793049045138886
38.934410625345876,57.838785807291664
38.96774488101826,57.89679904513889
39.00107913669065,57.94654839409722
39.034413392363035,58.033642578125
39.067747648035414,58.12364691840278
39.1010819037078,58.22111545138889
39.13441615938019,58.31727756076389
39.16775041505257,58.37237738715278
39.20108467072496,58.46865668402778
39.234418926397346,58.56762044270833
39.267753182069725,58.73748914930555
39.30108743774211,58.82552408854167
39.3344216934145,58.97597005208333
39.367755949086884,59.06455837673611
39.40109020475927,58.61000759548611
39.43442446043166,57.437389322916665
39.467758716104036,56.362879774305554
39.50109297177642,55.94602973090278
39.53442722744881,55.981578776041665
39.567761483121195,56.00761610243055
39.60109573879358,56.03145616319444
39.63442999446597,56.03814887152778
39.66776425013835,56.097195095486114
39.701098505810734,56.209039713541664
39.73443276148312,56.206624348958336
39.767767017155506,56.21714952256944
39.80110127282789,56.264415147569444
39.83443552850028,56.56932074652778
39.86776978417266,56.81139539930555
39.901104039845045,57.04384114583333
39.93443829551743,57.196612413194444
39.96777255118982,57.34462239583333
40.001106806862204,57.43048285590278
40.03444106253459,57.554370659722224
40.06777531820697,57.71058919270833
40.101109573879356,57.80487521701389
40.13444382955174,57.911937934027776
40.16777808522413,58.010700954861115
40.201112340896515,58.19076497395833
40.2344465965689,58.382909071180556
40.26778085224128,58.48186740451389
40.30111510791367,58.61641818576389
40.33444936358605,58.68973307291667
40.36778361925844,58.842814670138885
40.401117874930826,59.00631510416667
40.43445213060321,59.05326063368056
40.46778638627559,58.386959635416666
40.50112064194798,57.23547092013889
40.534454897620364,56.389911024305555
40.56778915329275,56.21613064236111
40.60112340896514,56.23900499131945
40.63445766463752,56.31083441840278
40.6677919203099,56.359697265625
40.70112617598229,56.45232421875
40.734460431654675,56.463031684027776
40.76779468732706,56.465764973958336
40.80112894299945,56.38267469618056
40.834463198671834,56.359149305555555
40.86779745434421,56.33169596354167
40.9011317100166,56.55178927951389
40.934465965688986,56.75574435763889
40.96780022136137,56.94203125
41.00113447703376,57.149907769097226
41.034468732706145,57.330983072916666
41.067802988378524,57.47329644097222
41.10113724405091,57.60981119791666
41.1344714997233,57.72985243055555
41.16780575539568,57.91332899305556
41.20114001106807,58.069340277777776
41.234474266740456,58.198491753472226
41.267808522412835,58.34807400173611
41.30114277808522,58.46080620659722
41.33447703375761,58.68007161458333
41.367811289429994,58.80519314236111
41.40114554510238,58.775135633680556
41.43447980077477,57.673435329861114
41.467814056447146,56.50609592013889
41.50114831211953,55.89630967881944
41.53448256779192,55.89527886284722
41.567816823464305,55.94053385416667
41.60115107913669,55.992686631944444
41.63448533480908,56.03438042534722
41.66781959048146,56.10946072048611
41.701153846153844,56.16515082465278
41.73448810182623,56.181513671875
41.767822357498616,56.175296223958334
41.801156613171,56.17908420138889
41.83449086884339,56.203095703125
41.86782512451577,56.41669704861111
41.901159380188155,56.63522135416667
41.93449363586054,56.78807725694445
41.96782789153293,56.967616102430554
42.001162147205314,57.12821940104167
42.0344964028777,57.27269097222222
42.06783065855008,57.40510416666667
42.101164914222466,57.55814561631944
42.13449916989485,57.73605577256944
42.16783342556724,57.89007486979167
42.201167681239625,58.05775716145833
42.23450193691201,58.22391493055556
42.26783619258439,58.38685546875
42.30117044825678,58.64420355902778
42.33450470392916,58.77477973090278
42.36783895960155,58.526012369791665
42.401173215273936,57.282306857638886
42.43450747094632,56.165530598958334
42.4678417266187,55.74476779513889
42.50117598229109,55.735835503472224
42.534510237963474,55.81798611111111
42.56784449363586,55.87414605034722
42.60117874930825,55.95535915798611
42.63451300498063,56.21990017361111
42.66784726065302,56.26211588541667
42.7011815163254,56.20806749131945
42.734515771997785,56.07885633680556
42.76785002767017,56.10016818576389
42.80118428334256,56.18292317708333
42.834518539014944,56.469127604166665
42.86785279468733,56.698001302083334
42.90118705035971,56.876766493055555
42.934521306032096,56.97498589409722
42.96785556170448,57.175707465277775
43.00118981737687,57.33036675347222
43.034524073049255,57.527323133680554
43.06785832872164,57.71514973958333
43.10119258439402,57.87117730034722
43.13452684006641,58.035518663194445
43.16786109573879,58.201654730902774
43.20119535141118,58.398098958333335
43.234529607083566,57.93603407118056
43.26786386275595,56.861613498263885
43.30119811842833,55.95632161458333
43.33453237410072,55.699329427083335
43.367866629773104,55.793719618055555
43.40120088544549,55.91217556423611
43.43453514111788,56.065355902777775
43.46786939679026,56.320796440972224
43.50120365246264,56.36773871527778
43.53453790813503,56.365947265625
43.567872163807415,56.34690863715278
43.6012064194798,56.34313693576389
43.63454067515219,56.369587673611115
43.667874930824574,56.666531032986114
43.70120918649695,56.92565972222222
43.73454344216934,57.18236436631945
43.767877697841726,57.40349826388889
43.80121195351411,57.50916883680556
43.8345462091865,57.60846245659722
43.867880464858885,57.69528754340278
43.901214720531264,57.863460286458334
43.93454897620365,57.97731770833333
43.96788323187604,58.108447265625
44.00121748754842,58.186468098958336
44.03455174322081,58.36891384548611
44.067885998893196,58.61394314236111
44.101220254565575,58.73718207465278
44.13455451023796,58.16981228298611
44.16788876591035,56.90939127604167
44.201223021582734,55.883715277777775
44.23455727725512,55.582347005208334
44.26789153292751,55.61415690104167
44.301225788599886,55.76277018229167
44.33456004427227,55.850362413194446
44.36789429994466,55.96347981770833
44.401228555617045,56.186650390625
44.43456281128943,56.198856336805555
44.46789706696182,56.21699435763889
44.5012313226342,56.23046006944445
44.534565578306584,56.262275390625
44.56789983397897,56.51893880208333
44.601234089651356,56.75688693576389
44.63456834532374,56.93318359375
44.66790260099613,57.08580295138889
44.70123685666851,57.24460069444444
44.734571112340895,57.35359809027778
44.76790536801328,57.438463541666664
44.80123962368567,57.53771484375
44.834573879358054,57.61097222222222
44.86790813503044,57.72658203125
44.90124239070282,57.877024739583334
44.934576646375206,58.02640516493056
44.96791090204759,58.10231662326389
45.00124515771998,58.300159505208335
45.034579413392365,58.403543836805554
45.06791366906475,58.56213650173611
45.10124792473713,58.73716471354167
45.13458218040952,58.43370768229167
45.1679164360819,57.153388671875
45.20125069175429,55.938465711805556
45.234584947426676,55.53812174479167
45.26791920309906,55.58328450520833
45.30125345877144,55.69837131076389
45.33458771444383,55.808140190972225
45.367921970116214,55.9405078125
45.4012562257886,56.08532009548611
45.43459048146099,56.123386501736114
45.46792473713337,56.10156358506944
45.50125899280575,56.07511067708333
45.53459324847814,56.10454318576389
45.567927504150525,56.20814344618056
45.60126175982291,56.48004665798611
45.6345960154953,56.700786675347224
45.667930271167684,56.894931640625
45.70126452684006,57.025936414930555
45.73459878251245,57.15849826388889
45.767933038184836,57.27740017361111
45.80126729385722,57.42031901041667
45.83460154952961,57.582001953125
45.867935805201995,57.74974717881945
45.901270060874374,57.878369140625
45.93460431654676,58.07950629340278
45.96793857221915,58.24355251736111
46.00127282789153,58.46543836805556
46.03460708356392,58.58044487847222
46.067941339236306,57.94367947048611
46.101275594908685,56.68774522569444
46.13460985058107,55.86931857638889
46.16794410625346,55.73598307291667
46.201278361925844,55.85514865451389
46.23461261759823,56.00221354166667
46.26794687327062,56.12242078993056
46.301281128942996,56.36086371527778
46.33461538461538,56.41486545138889
46.36794964028777,56.42695529513889
46.401283895960155,56.428729383680555
46.43461815163254,56.415851779513886
46.46795240730493,56.445291883680554
46.50128666297731,56.724892578125
46.53462091864969,56.925224609375
46.56795517432208,57.15606553819445
46.601289429994466,57.299625651041666
46.63462368566685,57.474933810763886
46.66795794133924,57.559200303819445
46.70129219701162,57.72482096354167
46.734626452684005,57.88207790798611
46.76796070835639,58.01367404513889
46.80129496402878,58.14326388888889
46.83462921970116,58.26715711805556
46.86796347537355,58.438970269097226
46.90129773104593,58.60773546006944
46.934631986718315,58.80274631076389
46.9679662423907,58.89230360243056
47.00130049806309,58.233907335069446
47.034634753735475,56.896669921875
47.06796900940786,55.88865668402778
47.10130326508024,55.64934678819444
47.13463752075263,55.70878580729167
47.16797177642501,55.836087239583335
47.2013060320974,55.88223849826389
47.234640287769786,55.98027886284722
47.26797454344217,56.147923177083335
47.30130879911455,56.182422960069445
47.33464305478694,56.17223524305555
47.367977310459324,56.17015082465278
47.40131156613171,56.20807834201389
47.4346458218041,56.447361111111114
47.46798007747648,56.62253038194444
47.50131433314886,56.86528103298611
47.53464858882125,57.024571397569446
47.567982844493635,57.20846028645833
47.60131710016602,57.36984917534722
47.63465135583841,57.46525390625
47.667985611510794,57.57826388888889
47.70131986718317,57.71230360243055
47.73465412285556,57.89686848958333
47.767988378527946,58.03220703125
47.80132263420033,58.193562282986115
47.83465688987272,58.411631944444444
47.867991145545105,58.639150390625
47.901325401217484,58.84782552083333
47.93465965688987,58.84914605034722
47.96799391256226,57.82586154513889
48.00132816823464,56.47959309895833
48.03466242390703,55.66937065972222
48.067996679579416,55.57351453993056
48.101330935251795,55.67128146701389
48.13466519092418,55.742284071180556
48.16799944659657,55.81230034722222
48.201333702268954,56.00953125
48.23466795794134,56.076344401041666
48.26800221361373,56.05390733506945
48.301336469286106,55.96170247395833
48.33467072495849,55.97537760416667
48.36800498063088,56.13743489583333
48.401339236303265,56.41871744791667
48.43467349197565,56.66599175347222
48.46800774764804,56.795750868055556
48.50134200332042,56.96399631076389
48.5346762589928,57.15219075520833
48.56801051466519,57.284037543402775
48.601344770337576,57.449421657986115
48.63467902600996,57.61591796875
48.66801328168235,57.7519140625
48.70134753735473,57.891917317708334
48.734681793027114,58.06816623263889
48.7680160486995,58.240147569444446
48.80135030437189,58.353466796875
48.83468456004427,57.707262369791664
48.86801881571666,56.47475260416667
48.90135307138904,55.64726128472222
48.934687327061425,55.46682508680556
48.96802158273381,55.55484049479167
49.0013558384062,55.65620659722222
49.034690094078584,55.714397786458335
49.06802434975097,55.862506510416665
49.10135860542335,56.00157769097222
49.134692861095736,56.004185112847225
49.16802711676812,55.97203016493056
49.20136137244051,55.991969401041665
49.234695628112895,56.01222330729167
49.26802988378528,56.30195095486111
49.30136413945766,56.50276150173611
49.33469839513005,56.65823133680556
49.368032650802434,56.85961805555556
49.40136690647482,56.973299696180554
49.434701162147206,57.10291449652778
49.46803541781959,57.15937608506945
49.50136967349197,57.305339626736114
49.53470392916436,57.45050130208333
49.568038184836745,57.572719184027775
49.60137244050913,57.75745985243056
49.63470669618152,57.858899739583336
49.668040951853904,58.011433376736115
49.70137520752628,58.17309787326389
49.73470946319867,58.36014322916667
49.768043718871056,58.51000108506945
49.80137797454344,58.219157986111114
49.83471223021583,56.882177734375
49.868046485888215,55.67887152777778
49.901380741560594,55.24890950520833
49.93471499723298,55.293599175347225
49.96804925290537,55.36944769965278
50.00138350857775,55.41593207465278
50.03471776425014,55.43477430555556
50.068052019922526,55.59625
50.101386275594905,55.690048828125
50.13472053126729,55.71731770833333
50.16805478693968,55.72907877604167
50.201389042612064,55.76674479166667
50.23472329828445,55.92451280381945
50.26805755395684,56.154942491319446
50.301391809629216,56.357122395833336
50.3347260653016,56.54416666666667
50.36806032097399,56.69627495659722
50.401394576646375,56.83544704861111
50.43472883231876,56.96339518229167
50.46806308799115,57.13770941840278
50.50139734366353,57.256142578125
50.53473159933591,57.391712239583335
50.5680658550083,57.558390842013885
50.601400110680686,57.746981336805554
50.63473436635307,57.89347873263889
50.66806862202546,58.084986979166665
50.70140287769784,58.23380425347222
50.734737133370224,58.441166449652776
50.76807138904261,58.70494574652778
50.801405644715,58.64118815104167
50.83473990038738,57.5343359375
50.86807415605977,56.28811414930556
50.90140841173215,55.697772352430555
50.934742667404535,55.67093532986111
50.96807692307692,55.74869357638889
51.00141117874931,55.866181640625
51.034745434421694,55.939676649305554
51.06807969009408,56.144300130208336
51.10141394576646,56.173352864583336
51.134748201438846,56.16064236111111
51.16808245711123,56.13921875
51.20141671278362,56.120130208333336
51.234750968456005,56.285786675347225
51.26808522412839,56.56032443576389
51.30141947980078,56.748834635416664
51.33475373547316,56.93875759548611
51.36808799114554,57.09172092013889
51.40142224681793,57.17896701388889
51.434756502490316,57.25637261284722
51.4680907581627,57.379488932291665
51.50142501383509,57.510166015625
51.53475926950747,57.61977213541667
51.568093525179854,57.740399305555556
51.60142778085224,57.86424045138889
51.63476203652463,58.01990559895833
51.66809629219701,58.179530164930554
51.7014305478694,58.40311957465278
51.73476480354178,58.32852973090278
51.768099059214165,57.24823676215278
51.80143331488655,56.08090386284722
51.83476757055894,55.55514756944444
51.868101826231324,55.53930447048611
51.90143608190371,55.60218858506944
51.93477033757609,55.66200412326389
51.968104593248476,55.72814019097222
52.00143884892086,55.93562282986111
52.03477310459325,55.98661675347222
52.068107360265635,55.98401041666666
52.10144161593802,55.96891167534722
52.1347758716104,55.96083984375
52.16811012728279,56.14697157118056
52.201444382955174,56.42460394965278
52.23477863862756,56.59208767361111
52.268112894299946,56.789569227430555
52.30144714997233,56.96113498263889
52.33478140564471,57.092373046875
52.3681156613171,57.24896918402778
52.401449916989485,57.36790473090278
52.43478417266187,57.458241102430556
52.46811842833426,57.5224609375
52.501452684006644,57.59253580729167
52.53478693967902,57.74922200520833
52.56812119535141,57.955944010416665
52.601455451023796,58.173935546875
52.63478970669618,58.368854166666665
52.66812396236857,58.342001953125
52.701458218040955,57.25360785590278
52.734792473713334,56.00878255208333
52.76812672938572,55.400172526041665
52.80146098505811,55.35298936631944
52.83479524073049,55.398134765625
52.86812949640288,55.471256510416666
52.901463752075266,55.51094292534722
52.934798007747645,55.65207682291667
52.96813226342003,55.78275390625
53.00146651909242,55.80986653645834
53.034800774764804,55.80442708333333
53.06813503043719,55.80386393229167
53.10146928610958,55.91101996527778
53.134803541781956,56.191813151041664
53.16813779745434,56.394612630208336
53.20147205312673,56.57006944444444
53.234806308799115,56.75687282986111
53.2681405644715,56.907247178819446
53.30147482014389,57.04713433159722
53.33480907581627,57.16465494791667
53.36814333148865,57.272274305555555
53.40147758716104,57.387301432291665
53.434811842833426,57.47550347222222
53.46814609850581,57.63592013888889
53.5014803541782,57.79037543402778
53.53481460985058,57.96494140625
53.568148865522964,58.09732855902778
53.60148312119535,58.23331597222222
53.63481737686774,58.371006944444446
53.66815163254012,58.52687934027778
53.70148588821251,58.64910047743056
53.73482014388489,58.821018880208335
53.768154399557275,58.63317816840278
53.80148865522966,57.338206380208334
53.83482291090205,56.03649956597222
53.868157166574434,55.41057725694444
53.90149142224682,55.42675021701389
53.9348256779192,55.47657118055555
53.968159933591586,55.55271484375
54.00149418926397,55.590985243055556
54.03482844493636,55.73208658854167
54.068162700608745,55.81751519097222
54.10149695628113,55.82255642361111
54.13483121195351,55.77903537326389
54.1681654676259,55.790798611111114
54.201499723298284,55.8578125
54.23483397897067,56.12931206597222
54.268168234643056,56.312342664930554
54.30150249031544,56.52004448784722
54.33483674598782,56.724751519097225
54.36817100166021,56.88539279513889
54.401505257332595,57.05229926215278
54.43483951300498,57.174838324652775
54.46817376867737,57.305912543402776
54.501508024349754,57.47158094618055
54.53484228002213,57.615625
54.56817653569452,57.75339626736111
54.601510791366906,57.87805772569445
54.63484504703929,58.039813368055555
54.66817930271168,58.19241536458333
54.701513558384065,58.38474066840278
54.734847814056444,58.35937282986111
54.76818206972883,57.28663519965278
54.80151632540122,56.06450520833334
54.8348505810736,55.46460069444444
54.86818483674599,55.44249240451389
54.901519092418376,55.53356228298611
54.934853348090755,55.690708550347225
54.96818760376314,55.78681315104166
55.00152185943553,55.96009114583333
55.034856115107914,55.994725477430556
55.0681903707803,55.979580078125
55.10152462645269,55.87625
55.134858882125066,55.869730902777775
55.16819313779745,55.92029513888889
55.20152739346984,56.173681640625
55.234861649142225,56.42040798611111
55.26819590481461,56.650677083333335
55.301530160487,56.830009765625
55.33486441615938,57.040805121527775
55.36819867183176,57.209683159722225
55.40153292750415,57.40511393229167
55.434867183176536,57.55699978298611
55.46820143884892,57.72050455729167
55.50153569452131,57.937641059027776
55.53486995019369,57.924969618055556
55.568204205866074,57.00021267361111
55.60153846153846,55.986165364583336
55.63487271721085,55.536311848958334
55.66820697288323,55.600771484375
55.70154122855562,55.723231336805554
55.734875484228,55.91597981770833
55.768209739900385,56.10482204861111
55.80154399557277,56.26570963541667
55.83487825124516,56.29210177951389
55.868212506917544,56.24980685763889
55.90154676258993,56.23328884548611
55.93488101826231,56.22527452256944
55.968215273934696,56.424503038194445
56.00154952960708,56.594288194444445
56.03488378527947,56.793955078125
56.068218040951855,57.017162543402776
56.10155229662424,57.181223958333334
56.13488655229662,57.380439453125
56.16822080796901,57.556845703125
56.20155506364139,57.69859483506944
56.23488931931378,57.826725260416666
56.268223574986166,57.984950086805554
56.30155783065855,58.14636067708334
56.33489208633093,57.72518120659722
56.36822634200332,56.64250868055556
56.401560597675704,55.82161892361111
56.43489485334809,55.63666015625
56.46822910902048,55.71776584201389
56.50156336469286,55.87051974826389
56.53489762036524,55.957737630208335
56.56823187603763,56.13487738715278
56.601566131710015,56.18941297743056
56.6349003873824,56.191287977430555
56.66823464305479,56.168451605902774
56.701568898727174,56.13424587673611
56.734903154399554,56.14948893229167
56.76823741007194,56.373668619791665
56.801571665744326,56.565185546875
56.83490592141671,56.74130208333333
56.8682401770891,56.87811740451389
56.901574432761485,57.00466796875
56.934908688433865,57.18565212673611
56.96824294410625,57.294833984375
57.00157719977864,57.446995442708335
57.034911455451024,57.571375868055554
57.06824571112341,57.690151909722225
57.101579966795796,57.854503038194444
57.134914222468176,58.010660807291664
57.16824847814056,58.233080512152775
57.20158273381295,58.12902126736111
57.234916989485335,57.04062717013889
57.26825124515772,56.01442816840278
57.30158550083011,55.58655056423611
57.33491975650249,55.58321614583333
57.36825401217487,55.64859157986111
57.40158826784726,55.70482204861111
57.434922523519646,55.759174262152776
57.46825677919203,55.850719401041665
57.50159103486442,55.9334765625
57.5349252905368,55.955096571180555
57.568259546209184,55.955341796875
57.60159380188157,55.97831705729167
57.63492805755396,56.14103515625
57.66826231322634,56.34437717013889
57.70159656889873,56.521555989583334
57.73493082457111,56.699518229166664
57.768265080243495,56.888034939236114
57.80159933591588,56.99284505208333
57.83493359158827,57.13484157986111
57.868267847260654,57.215489366319446
57.90160210293304,57.32974609375
57.93493635860542,57.45736002604167
57.968270614277806,57.60421766493056
58.00160486995019,57.74313910590278
58.03493912562258,57.890377604166666
58.068273381294965,58.02574978298611
58.10160763696735,58.149912109375
58.13494189263973,58.32888671875
58.16827614831212,58.47414388020833
58.2016104039845,58.555625
58.23494465965689,57.7379296875
58.268278915329276,56.53584201388889
58.30161317100166,55.845706380208334
58.33494742667404,55.790521918402774
58.36828168234643,55.84064236111111
58.401615938018814,55.91685438368056
58.4349501936912,55.941455078125
58.46828444936359,56.02793185763889
58.50161870503597,56.092326388888885
58.53495296070835,56.08627278645833
58.56828721638074,56.056155598958334
58.601621472053125,56.034342447916664
58.63495572772551,56.054798177083335
58.6682899833979,56.299564887152776
58.701624239070284,56.479725477430556
58.73495849474266,56.649401041666664
58.76829275041505,56.78680881076389
58.801627006087436,56.89118381076389
58.83496126175982,57.01861111111111
58.86829551743221,57.15840277777778
58.901629773104595,57.31126302083333
58.934964028776974,57.45636501736111
58.96829828444936,57.57170030381945
59.00163254012175,57.69919596354167
59.03496679579413,57.86054253472222
59.06830105146652,58.03359266493055
59.101635307138906,58.19200846354167
59.134969562811285,58.00073893229167
59.16830381848367,56.95464192708334
59.20163807415606,56.03271484375
59.234972329828445,55.70538519965278
59.26830658550083,55.799771050347225
59.30164084117322,55.89645941840278
59.3349750968456,55.97482421875
59.36830935251798,56.11396701388889
59.40164360819037,56.245144314236114
59.434977863862755,56.261041666666664
59.46831211953514,56.22683702256944
59.50164637520753,56.20179904513889
59.53498063087991,56.23125325520834
59.568314886552294,56.41604817708333
59.60164914222468,56.58907877604167
59.63498339789707,56.81427625868056
59.66831765356945,56.927880859375
59.70165190924184,57.05967881944444
59.73498616491422,57.18601019965278
59.768320420586605,57.2853515625
59.80165467625899,57.44110568576389
59.83498893193138,57.56586697048611
59.868323187603764,57.72611436631944
59.90165744327615,57.83770724826389
59.93499169894854,57.976315104166666
59.968325954620916,58.06532009548611
60.0016602102933,58.29926974826389
60.03499446596569,58.74879665798611
60.068328721638075,59.19189561631944
60.10166297731046,59.13095703125
60.13499723298285,58.04933810763889
60.16833148865523,56.964396701388885
60.20166574432761,56.14330403645833
