t_sec,brightness
0.0,80.93193672839506
0.03333333333333333,79.95192322530865
0.06666666666666667,78.4606886574074
0.1,76.90423804012346
0.13333333333333333,75.38328125
0.16666666666666666,74.14018325617283
0.2,72.73201388888889
0.23333333333333334,71.90626157407408
0.26666666666666666,71.48088734567901
0.3,70.82776427469136
0.3333333333333333,70.35744212962963
0.36666666666666664,70.02753279320987
0.4,69.74271219135802
0.43333333333333335,69.37389467592592
0.4666666666666667,69.17403935185185
0.5,69.01614197530864
0.5333333333333333,68.75420910493827
0.5666666666666667,68.18992091049383
0.6,67.78321566358025
0.6333333333333333,67.51557098765431
0.6666666666666666,67.30145061728395
0.7,67.0174074074074
0.7333333333333333,66.53021797839506
0.7666666666666666,65.81582175925926
0.8,65.53081983024691
0.8333333333333334,65.44099729938272
0.8666666666666667,65.41783179012346
0.9,65.43339506172839
0.9333333333333333,65.43122685185185
0.9666666666666667,65.04858796296297
1.0,65.10283950617284
1.0333333333333332,65.20847800925925
1.0666666666666667,65.23726273148148
1.1,65.43537422839506
1.1333333333333333,65.54850308641976
1.1666666666666667,65.65599151234568
1.2,65.92690972222222
1.2333333333333334,66.15657021604939
1.2666666666666666,66.32179591049383
1.3,66.38365354938271
1.3333333333333333,66.42744598765432
1.3666666666666667,66.5209587191358
1.4,66.56165509259259
1.4333333333333333,66.59883680555555
1.4666666666666666,66.49447530864198
1.5,66.50304976851852
1.5333333333333332,66.36547067901235
1.5666666666666667,66.38320794753086
1.6,68.95730516975308
1.6333333333333333,68.91219714506173
1.6666666666666667,68.78517168209876
1.7,68.45916859567902
1.7333333333333334,67.40021219135802
1.7666666666666666,67.00746141975308
1.8,66.55353973765432
1.8333333333333333,66.5695736882716
1.8666666666666667,66.19777970679013
1.9,66.17868827160494
1.9333333333333333,65.68791473765432
1.9666666666666666,65.63699266975308
2.0,65.21636574074074
2.033333333333333,65.15353587962963
2.0666666666666664,64.73306712962963
2.1,64.7444598765432
2.1333333333333333,64.29305941358025
2.1666666666666665,64.26309606481482
2.2,63.891608796296296
2.2333333333333334,64.03059027777778
2.2666666666666666,66.30868827160494
2.3,66.46200810185185
2.3333333333333335,66.4994849537037
2.3666666666666667,66.49534915123456
2.4,66.53811921296297
2.433333333333333,66.57751157407408
2.466666666666667,66.69320987654321
2.5,66.78748649691359
2.533333333333333,66.8878163580247
2.5666666666666664,66.78911072530865
2.6,66.31011959876543
2.6333333333333333,65.81344135802469
2.6666666666666665,65.69571566358024
2.7,65.69441358024692
2.7333333333333334,65.76177469135803
2.7666666666666666,65.77798804012346
2.8,65.84769097222222
2.8333333333333335,65.86312692901235
2.8666666666666667,65.85289737654321
2.9,65.81891782407408
2.933333333333333,65.81505208333333
2.966666666666667,65.80052662037038
3.0,65.78510223765431
3.033333333333333,65.77358796296296
3.0666666666666664,65.81455054012346
3.1,65.90857831790123
3.1333333333333333,66.01469907407407
3.1666666666666665,66.08626929012345
3.2,66.1135050154321
3.2333333333333334,66.18262731481481
3.2666666666666666,66.21754436728395
3.3,66.20920331790123
3.3333333333333335,66.29102430555555
3.3666666666666667,66.32056327160494
3.4,66.15605131172839
3.433333333333333,65.59995949074074
3.466666666666667,65.34683641975309
3.5,65.34233024691358
3.533333333333333,65.39003665123457
3.5666666666666664,65.40471064814815
3.6,65.43995370370371
3.6333333333333333,65.43395061728395
3.6666666666666665,65.43723572530864
3.6999999999999997,65.44068094135802
3.7333333333333334,65.36728973765432
3.7666666666666666,65.37348186728396
3.8,65.42184992283951
3.8333333333333335,65.46715663580247
3.8666666666666667,65.5192862654321
3.9,65.61871141975308
3.933333333333333,65.67461419753086
3.966666666666667,65.74820023148148
4.0,65.79845679012345
4.033333333333333,65.84667438271605
4.066666666666666,65.88575810185185
4.1,65.95485339506173
4.133333333333333,66.06475115740741
4.166666666666667,66.08398148148149
4.2,65.84046682098766
4.233333333333333,65.29217013888889
4.266666666666667,65.03702546296296
4.3,65.09092785493827
4.333333333333333,65.20683449074075
4.366666666666666,65.24297839506173
4.4,65.26468171296297
4.433333333333334,65.2872087191358
4.466666666666667,65.30230516975308
4.5,65.31589313271606
4.533333333333333,65.33286844135803
4.566666666666666,65.3141338734568
4.6,65.32456983024692
4.633333333333333,65.3389313271605
4.666666666666667,65.3368287037037
4.7,65.40956018518519
4.733333333333333,65.49141203703704
4.766666666666667,65.64364390432098
4.8,65.71952353395062
4.833333333333333,65.834268904321
4.866666666666666,65.92670524691358
4.9,66.03391396604938
4.933333333333334,66.17867091049382
4.966666666666667,66.34047067901234
5.0,66.44229938271604
5.033333333333333,66.36713155864197
5.066666666666666,65.73203510802469
5.1,65.31863618827161
5.133333333333333,65.23322916666666
5.166666666666667,65.26927469135802
5.2,65.3174537037037
5.233333333333333,65.35009066358025
5.266666666666667,65.37719328703703
5.3,65.38640625
5.333333333333333,65.39643711419752
5.366666666666666,65.41114197530864
5.4,65.41799575617284
5.433333333333334,65.42722222222223
5.466666666666667,65.44923418209876
5.5,65.5292013888889
5.533333333333333,65.72043595679013
5.566666666666666,65.77005015432098
5.6,65.7897087191358
5.633333333333333,65.8512287808642
5.666666666666667,65.87794560185185
5.7,65.91943287037037
5.733333333333333,66.00686342592593
5.766666666666667,66.15851273148148
5.8,66.2377912808642
5.833333333333333,66.3075675154321
5.866666666666666,66.34329861111111
5.9,66.47650462962963
5.933333333333334,66.56378086419753
5.966666666666667,66.60709683641976
6.0,66.64056712962963
6.033333333333333,66.35335648148148
6.066666666666666,65.82364197530865
6.1,65.61799575617285
6.133333333333333,65.59625771604938
6.166666666666667,65.61297839506173
6.2,65.63174768518519
6.233333333333333,65.63295331790124
6.266666666666667,65.64420717592593
6.3,65.65094521604938
6.333333333333333,65.6440625
6.366666666666666,65.63969328703703
6.4,65.64218171296297
6.433333333333334,65.65517361111111
6.466666666666667,65.67841049382716
6.5,65.73276427469136
6.533333333333333,65.81619212962963
6.566666666666666,65.92217592592593
6.6,65.96150848765433
6.633333333333333,66.0169675925926
6.666666666666667,66.00728780864198
6.7,66.0751350308642
6.733333333333333,66.17488811728396
6.766666666666667,66.2572974537037
6.8,66.30114197530864
6.833333333333333,66.39713348765432
6.866666666666666,66.4458275462963
6.8999999999999995,66.48163580246914
6.933333333333334,66.50486496913581
6.966666666666667,66.60771026234568
7.0,66.66397955246913
7.033333333333333,66.71815393518519
7.066666666666666,66.66422067901235
7.1,66.18397183641976
7.133333333333333,65.76266975308641
7.166666666666667,65.74063850308642
7.2,65.77561342592593
7.233333333333333,65.78649691358025
7.266666666666667,65.78282214506173
7.3,65.76949845679012
7.333333333333333,65.76632137345679
7.366666666666666,65.72419174382716
7.3999999999999995,65.73532214506173
7.433333333333334,65.73631944444445
7.466666666666667,65.71035686728395
7.5,65.74342399691358
7.533333333333333,65.77231481481482
7.566666666666666,65.85732060185185
7.6,65.94017939814815
7.633333333333333,66.0269212962963
7.666666666666667,66.05525848765433
7.7,66.10415123456791
7.733333333333333,66.13756172839506
7.766666666666667,66.24902391975309
7.8,66.29955825617284
7.833333333333333,66.3537962962963
7.866666666666666,66.43316936728395
7.8999999999999995,66.54580825617283
7.933333333333334,66.60614776234569
7.966666666666667,66.66928240740741
8.0,66.73947723765433
8.033333333333333,66.8323013117284
8.066666666666666,66.89907407407408
8.1,66.79995949074075
8.133333333333333,66.29387924382716
8.166666666666666,65.94273919753087
8.2,65.91866705246913
8.233333333333333,65.94494212962962
8.266666666666666,65.99924768518518
8.3,65.94855516975309
8.333333333333334,65.93126929012345
8.366666666666667,65.93231095679012
8.4,65.92249035493828
8.433333333333334,65.90524305555556
8.466666666666667,65.89360918209877
8.5,65.8981712962963
8.533333333333333,65.90063657407407
8.566666666666666,65.96611304012346
8.6,66.09025077160494
8.633333333333333,66.1370987654321
8.666666666666666,66.15435956790124
8.7,66.20105324074073
8.733333333333333,66.22596064814815
8.766666666666666,66.26595100308641
8.8,66.27981095679013
8.833333333333334,66.41543788580248
8.866666666666667,66.47792438271605
8.9,66.5556037808642
8.933333333333334,66.62296103395062
8.966666666666667,66.71305362654321
9.0,66.78306327160495
9.033333333333333,66.90182098765432
9.066666666666666,66.96825424382716
9.1,66.97116705246914
9.133333333333333,66.77828510802469
9.166666666666666,66.27117669753086
9.2,66.01339891975309
9.233333333333333,65.94919174382716
9.266666666666666,66.04513888888889
9.3,66.06500964506174
9.333333333333334,66.05866705246913
9.366666666666667,66.08412808641975
9.4,66.08402970679012
9.433333333333334,66.07849344135802
9.466666666666667,66.03945601851852
9.5,66.04527584876543
9.533333333333333,66.01216435185185
9.566666666666666,66.06485146604938
9.6,66.16480516975308
9.633333333333333,66.26480902777777
9.666666666666666,66.25901427469135
9.7,66.29919945987655
9.733333333333333,66.31653356481482
9.766666666666666,66.40334104938272
9.8,66.44578896604938
9.833333333333334,66.51974922839506
9.866666666666667,66.58280671296296
9.9,66.69613425925925
9.933333333333334,66.73997878086419
9.966666666666667,66.77315779320988
10.0,66.86378472222222
10.033333333333333,66.94841820987655
10.066666666666666,67.01687307098766
10.1,66.95640432098766
10.133333333333333,66.48032600308642
10.166666666666666,66.01718364197531
10.2,65.97250771604938
10.233333333333333,65.98247299382716
10.266666666666666,66.06079475308643
10.3,66.11158757716049
10.333333333333334,66.15130594135802
10.366666666666667,66.17312307098766
10.4,66.13903549382717
10.433333333333334,66.1332349537037
10.466666666666667,66.12395061728395
10.5,66.10334683641975
10.533333333333333,66.12049382716049
10.566666666666666,66.20569830246913
10.6,66.26639081790124
10.633333333333333,66.33832561728396
10.666666666666666,66.34804205246914
10.7,66.46210455246914
10.733333333333333,66.5230150462963
10.766666666666666,66.55261381172839
10.8,66.54219907407408
10.833333333333334,66.58288966049383
10.866666666666667,66.74033757716049
10.9,66.89179783950617
10.933333333333334,66.94421103395062
10.966666666666667,66.95885223765433
11.0,66.63099537037037
11.033333333333333,66.17980902777778
11.066666666666666,66.07010030864197
11.1,66.08838927469135
11.133333333333333,66.14570987654321
11.166666666666666,66.15836033950617
11.2,66.1704012345679
11.233333333333333,66.19986689814814
11.266666666666666,66.1758024691358
11.3,66.16733796296296
11.333333333333334,66.1541512345679
11.366666666666667,66.14874614197531
11.4,66.1796913580247
11.433333333333334,66.30890817901235
11.466666666666667,66.39621913580247
11.5,66.46442515432099
11.533333333333333,66.52474922839507
11.566666666666666,66.60149112654321
11.6,66.67204668209877
11.633333333333333,66.80507908950618
11.666666666666666,66.8099787808642
11.7,66.80775655864197
11.733333333333333,66.77916087962963
11.766666666666666,66.86438078703704
11.8,67.02059220679013
11.833333333333334,66.80529706790124
11.866666666666667,66.30526041666667
11.9,66.01608217592593
11.933333333333334,66.0155324074074
11.966666666666667,66.09134066358024
12.0,66.22122492283951
12.033333333333333,66.21445794753086
12.066666666666666,66.21981288580247
12.1,66.22878086419753
12.133333333333333,66.20610918209877
12.166666666666666,66.2260898919753
12.2,66.20248649691358
12.233333333333333,66.2099537037037
12.266666666666666,66.19727237654321
12.3,66.46411072530864
12.333333333333334,66.48853587962962
12.366666666666667,66.50997299382716
12.4,66.58440586419754
12.433333333333334,66.74348958333333
12.466666666666667,66.80466049382716
12.5,66.80048032407407
12.533333333333333,66.7961574074074
12.566666666666666,66.8306712962963
12.6,66.93436728395062
12.633333333333333,67.1571875
12.666666666666666,67.18941936728395
12.7,67.12048804012346
12.733333333333333,66.51830439814815
12.766666666666666,65.90622299382716
12.8,65.79238040123457
12.833333333333334,65.84113233024691
12.866666666666667,65.87112461419753
12.9,65.87852044753086
12.933333333333334,65.89628279320988
12.966666666666667,65.87040509259259
13.0,65.85314429012345
13.033333333333333,65.80678433641975
13.066666666666666,65.76307677469136
13.1,65.7866512345679
13.133333333333333,65.83388117283951
13.166666666666666,65.89319830246913
13.2,65.93400077160494
13.233333333333333,66.02030092592592
13.266666666666666,66.11178047839506
13.299999999999999,66.18896026234567
13.333333333333334,66.26751350308642
13.366666666666667,66.41277777777778
13.4,66.51677083333334
13.433333333333334,66.56243055555555
13.466666666666667,66.61863618827161
13.5,66.71237847222223
13.533333333333333,66.77556905864198
13.566666666666666,66.91458912037037
13.6,67.05748263888889
13.633333333333333,67.10727816358025
13.666666666666666,67.04972222222223
13.7,66.42619405864197
13.733333333333333,65.82908950617283
13.766666666666666,65.58522955246913
13.799999999999999,65.70593942901235
13.833333333333334,65.7326350308642
13.866666666666667,65.76925347222222
13.9,65.7140663580247
13.933333333333334,65.68128279320987
13.966666666666667,65.68807484567901
14.0,65.64691358024692
14.033333333333333,65.63816936728395
14.066666666666666,65.62777391975308
14.1,65.63926890432099
14.133333333333333,65.73438464506172
14.166666666666666,65.94233410493827
14.2,66.02029899691358
14.233333333333333,66.13709297839506
14.266666666666666,66.13984375
14.299999999999999,66.2103549382716
14.333333333333334,66.3709837962963
14.366666666666667,66.50729938271606
14.4,66.5996489197531
14.433333333333334,66.70478009259259
14.466666666666667,66.85277777777777
14.5,66.9563850308642
14.533333333333333,67.01723572530864
14.566666666666666,67.11257330246913
14.6,67.21965277777778
14.633333333333333,67.35994405864197
14.666666666666666,67.42412037037037
14.7,67.42223958333334
14.733333333333333,67.01227044753087
14.766666666666666,66.37139274691359
14.799999999999999,66.02075231481481
14.833333333333334,65.97462962962963
14.866666666666667,65.9968499228395
14.9,65.98135609567902
14.933333333333334,65.96717785493827
14.966666666666667,65.95889853395062
15.0,65.96034336419753
15.033333333333333,65.97515046296296
15.066666666666666,65.94035686728395
15.1,65.93802276234568
15.133333333333333,65.93193287037037
15.166666666666666,65.94084297839507
15.2,65.95152199074074
15.233333333333333,66.07021797839506
15.266666666666666,66.15908371913581
15.299999999999999,66.2085725308642
15.333333333333334,66.20696952160493
15.366666666666667,66.26751350308642
15.4,66.29256558641976
15.433333333333334,66.35950424382716
15.466666666666667,66.40135223765432
15.5,66.49609567901234
15.533333333333333,66.5951774691358
15.566666666666666,66.65303047839507
15.6,66.71480516975309
15.633333333333333,66.78719328703704
15.666666666666666,66.91841820987655
15.7,67.0022588734568
15.733333333333333,67.02473186728395
15.766666666666666,67.01704668209877
15.799999999999999,66.32237461419753
15.833333333333334,65.69450617283951
15.866666666666667,65.41161458333333
15.9,65.45683834876543
15.933333333333334,65.51976658950618
15.966666666666667,65.56044367283951
16.0,65.60066358024692
16.03333333333333,65.63847800925926
16.066666666666666,65.64967592592592
16.1,65.63841820987655
16.133333333333333,65.61206018518519
16.166666666666668,65.64056905864197
16.2,65.65966820987654
16.233333333333334,65.72228780864198
16.266666666666666,65.92112075617284
16.3,66.05060763888889
16.333333333333332,66.10804205246913
16.366666666666667,66.18333526234568
16.4,66.25238040123457
16.433333333333334,66.32214891975309
16.466666666666665,66.40130594135802
16.5,66.48473186728395
16.53333333333333,66.60311342592593
16.566666666666666,66.68538773148148
16.6,66.77816165123457
16.633333333333333,66.86019675925925
16.666666666666668,66.9462075617284
16.7,67.00729359567902
16.733333333333334,67.05663966049383
16.766666666666666,67.10619212962963
16.8,67.03069058641975
16.833333333333332,66.38982638888889
16.866666666666667,65.70510609567901
16.9,65.58892939814815
16.933333333333334,65.61225308641976
16.966666666666665,65.7545524691358
17.0,65.80820023148148
17.03333333333333,65.8411111111111
17.066666666666666,65.86388695987654
17.1,65.86224344135802
17.133333333333333,65.82586226851852
17.166666666666668,65.80623842592593
17.2,65.7900848765432
17.233333333333334,65.80031442901235
17.266666666666666,65.86766782407408
17.3,66.06332368827161
17.333333333333332,66.09807098765432
17.366666666666667,66.18974729938272
17.4,66.28057677469135
17.433333333333334,66.32016396604938
17.466666666666665,66.34043016975309
17.5,66.53159722222222
17.53333333333333,66.65190972222223
17.566666666666666,66.73273533950618
17.6,66.83966820987655
17.633333333333333,66.98207175925926
17.666666666666668,67.00321759259259
17.7,67.08952546296297
17.733333333333334,67.11420138888889
17.766666666666666,67.16872106481482
17.8,67.03292824074074
17.833333333333332,66.34893904320988
17.866666666666667,65.78805941358024
17.9,65.63442322530864
17.933333333333334,65.64412808641976
17.966666666666665,65.78777199074074
18.0,65.8559375
18.03333333333333,65.91436728395061
18.066666666666666,65.93690972222223
18.1,65.93349729938272
18.133333333333333,65.89554976851852
18.166666666666668,65.86707561728394
18.2,65.83558063271605
18.233333333333334,65.84206983024691
18.266666666666666,65.90564814814815
18.3,66.09816936728394
18.333333333333332,66.17553433641976
18.366666666666667,66.23432291666667
18.4,66.2973476080247
18.433333333333334,66.36087191358024
18.466666666666665,66.39991705246914
18.5,66.4621662808642
18.53333333333333,66.52621720679012
18.566666666666666,66.65859953703703
18.6,66.71554783950617
18.633333333333333,66.78282600308641
18.666666666666668,66.78833912037037
18.7,66.87024691358025
18.733333333333334,66.8760223765432
18.766666666666666,66.75991705246913
18.8,66.13795910493828
18.833333333333332,65.5854012345679
18.866666666666667,65.54973572530864
18.9,65.65667824074075
18.933333333333334,65.75418209876543
18.966666666666665,65.84908950617285
19.0,65.9236612654321
19.03333333333333,65.92739776234568
19.066666666666666,65.89206018518519
19.1,65.88040895061728
19.133333333333333,65.84675540123457
19.166666666666668,65.85479745370371
19.2,65.86788773148149
19.233333333333334,66.00408564814815
19.266666666666666,66.12356288580247
19.3,66.21385030864198
19.333333333333332,66.29672067901235
19.366666666666667,66.36862847222223
19.4,66.42450231481482
19.433333333333334,66.46385223765432
19.466666666666665,66.51716049382716
19.5,66.58893325617284
19.53333333333333,66.64122299382716
19.566666666666666,66.72295910493827
19.6,66.82719907407407
19.633333333333333,66.78679783950618
19.666666666666668,66.30760030864198
19.7,65.74551311728395
19.733333333333334,65.57554976851851
19.766666666666666,65.59657600308643
19.8,65.63576774691359
19.833333333333332,65.7105613425926
19.866666666666667,65.74729359567901
19.9,65.77547067901234
19.933333333333334,65.79339891975309
19.966666666666665,65.7627662037037
20.0,65.691875
20.03333333333333,65.71329861111111
20.066666666666666,65.71172260802469
20.1,65.72259837962963
20.133333333333333,65.81123070987654
20.166666666666668,65.93557098765432
20.2,66.03623842592593
20.233333333333334,66.07248456790123
20.266666666666666,66.11790702160494
20.3,66.18909915123457
20.333333333333332,66.2575887345679
20.366666666666667,66.31550733024692
20.4,66.42025077160494
20.433333333333334,66.49334104938272
20.466666666666665,66.56292631172839
20.5,66.59105709876543
20.53333333333333,66.29465663580247
20.566666666666666,65.64522376543209
20.6,65.24158757716049
20.633333333333333,65.28889853395061
20.666666666666668,65.36193094135803
20.7,65.39674768518519
20.733333333333334,65.43405671296296
20.766666666666666,65.45579475308642
20.8,65.45662037037037
20.833333333333332,65.46291666666667
20.866666666666667,65.44663773148149
20.9,65.45127314814815
20.933333333333334,65.44725308641975
20.966666666666665,65.49597415123456
21.0,65.59315007716049
21.03333333333333,65.71193094135802
21.066666666666666,65.80526813271605
21.1,65.8992399691358
21.133333333333333,65.95442515432099
21.166666666666668,66.02327739197531
21.2,66.08578317901235
21.233333333333334,66.16828125
21.266666666666666,66.24478780864197
21.3,66.36956018518518
21.333333333333332,66.46037229938271
21.366666666666667,66.58061342592593
21.4,66.63175154320987
21.433333333333334,66.69293788580246
21.466666666666665,66.74820794753086
21.5,66.5462924382716
21.53333333333333,65.85705246913581
21.566666666666666,65.3116261574074
21.6,65.2273013117284
21.633333333333333,65.24424189814815
21.666666666666668,65.26722222222222
21.7,65.27762152777778
21.733333333333334,65.30782021604938
21.766666666666666,65.33602430555555
21.8,65.35262731481481
21.833333333333332,65.33536458333333
21.866666666666667,65.31817901234568
21.9,65.31919945987654
21.933333333333334,65.31198109567902
21.966666666666665,65.37795138888889
22.0,65.54697145061728
22.03333333333333,65.67237461419754
22.066666666666666,65.73493634259259
22.1,65.80376157407407
22.133333333333333,65.89288580246914
22.166666666666668,66.07426697530865
22.2,66.08096257716049
22.233333333333334,66.2051350308642
22.266666666666666,66.35517554012345
22.3,66.44700424382717
22.333333333333332,66.53085648148148
22.366666666666667,66.61761188271605
22.4,66.70595486111111
22.433333333333334,66.8414525462963
22.466666666666665,66.84959490740741
22.5,66.89257716049383
22.53333333333333,66.95865933641976
22.566666666666666,66.8415625
22.6,66.11452353395062
22.633333333333333,65.50315586419752
22.666666666666668,65.3790837191358
22.7,65.42815200617284
22.733333333333334,65.51480324074075
22.766666666666666,65.56547453703703
22.8,65.55740354938271
22.833333333333332,65.5863599537037
22.866666666666667,65.5767862654321
22.9,65.5734837962963
22.933333333333334,65.55014081790124
22.966666666666665,65.56429591049383
23.0,65.58691165123457
23.03333333333333,65.75574266975309
23.066666666666666,65.88890046296297
23.1,66.00492091049382
23.133333333333333,66.0978337191358
23.166666666666668,66.18046296296296
23.2,66.29456790123457
23.233333333333334,66.34486111111111
23.266666666666666,66.39630015432098
23.3,66.47630594135802
23.333333333333332,66.53255594135803
23.366666666666667,66.70062885802469
23.4,66.77646797839506
23.433333333333334,66.87002314814815
23.466666666666665,66.99627507716049
23.5,67.14315200617284
23.53333333333333,67.19954475308641
23.566666666666666,67.23733217592593
23.6,67.33398533950617
23.633333333333333,67.1830111882716
23.666666666666668,66.47609567901235
23.7,65.81375771604938
23.733333333333334,65.55867669753087
23.766666666666666,65.60730516975309
23.8,65.70281057098765
23.833333333333332,65.71081404320988
23.866666666666667,65.71651427469136
23.9,65.75402584876544
23.933333333333334,65.75811921296297
23.966666666666665,65.7643576388889
24.0,65.71681134259259
24.03333333333333,65.740625
24.066666666666666,65.87187885802469
24.1,66.0332986111111
24.133333333333333,66.14754436728396
24.166666666666668,66.24000964506173
24.2,66.2675212191358
24.233333333333334,66.4083487654321
24.266666666666666,66.4681423611111
24.3,66.52803819444445
24.333333333333332,66.59744984567901
24.366666666666667,66.70629436728395
24.4,66.84628472222222
24.433333333333334,66.9642399691358
24.466666666666665,67.05298996913581
24.5,67.19063657407408
24.53333333333333,67.22701967592593
24.566666666666666,67.28865354938272
24.6,67.32958719135803
24.633333333333333,67.44688271604939
24.666666666666668,67.49686535493827
24.7,67.38244212962962
24.733333333333334,66.6742824074074
24.766666666666666,65.97382716049383
24.8,65.75773533950617
24.833333333333332,65.80328703703704
24.866666666666667,65.85492862654321
24.9,65.88740162037037
24.933333333333334,65.91596836419752
24.966666666666665,65.89088541666666
25.0,65.86831597222222
25.03333333333333,65.84232060185185
25.066666666666666,65.80346450617284
25.1,65.73726080246914
25.133333333333333,65.74589506172839
25.166666666666668,65.8860050154321
25.2,65.97438657407407
25.233333333333334,66.02762924382716
25.266666666666666,66.1074787808642
25.3,66.16645447530864
25.333333333333332,66.28667438271604
25.366666666666667,66.43717592592593
25.4,66.51323302469136
25.433333333333334,66.58927469135803
25.466666666666665,66.64167824074075
25.5,66.78516782407408
25.53333333333333,66.8749961419753
25.566666666666666,66.95
25.6,66.97192901234568
25.633333333333333,67.06168788580247
25.666666666666668,67.1127874228395
25.7,67.17855324074074
25.733333333333334,66.98885995370371
25.766666666666666,66.33987654320988
25.8,65.65357445987654
25.833333333333332,65.4880536265432
25.866666666666667,65.51809413580247
25.9,65.68444830246914
25.933333333333334,65.77182098765432
25.966666666666665,65.82512924382716
26.0,65.90470679012346
26.03333333333333,65.80039158950618
26.066666666666666,65.74810570987654
26.099999999999998,65.70404513888889
26.133333333333333,65.6450887345679
26.166666666666668,65.71775270061728
26.2,65.85821180555556
26.233333333333334,65.95898726851851
26.266666666666666,66.06461033950617
26.3,66.17690586419754
26.333333333333332,66.2128337191358
26.366666666666667,66.29827546296296
26.4,66.33914544753087
26.433333333333334,66.42432291666667
26.466666666666665,66.52014081790124
26.5,66.61822337962963
26.53333333333333,66.63119020061728
26.566666666666666,66.69437114197531
26.599999999999998,66.68005787037038
26.633333333333333,66.75508487654321
26.666666666666668,66.62727816358024
26.7,65.9436786265432
26.733333333333334,65.31074652777778
26.766666666666666,65.23011188271605
26.8,65.29725308641976
26.833333333333332,65.50825038580247
26.866666666666667,65.59255015432099
26.9,65.63464506172839
26.933333333333334,65.6322299382716
26.966666666666665,65.53408564814815
27.0,65.46461419753086
27.03333333333333,65.42909722222223
27.066666666666666,65.4115625
27.099999999999998,65.49685570987654
27.133333333333333,65.63708719135802
27.166666666666668,65.78420910493827
27.2,65.84336226851852
27.233333333333334,65.96567901234567
27.266666666666666,66.10338734567901
27.3,66.19902391975309
27.333333333333332,66.26994598765432
27.366666666666667,66.36539158950617
27.4,66.50912229938271
27.433333333333334,66.68818094135803
27.466666666666665,66.68085262345679
27.5,66.81646604938271
27.53333333333333,66.97272762345679
27.566666666666666,66.75697145061729
27.599999999999998,65.95743055555556
27.633333333333333,65.28551311728395
27.666666666666668,65.23192901234567
27.7,65.31424575617284
27.733333333333334,65.41791666666667
27.766666666666666,65.42897183641975
27.8,65.30291280864198
27.833333333333332,65.33655864197532
27.866666666666667,65.34181134259259
27.9,65.33260030864197
27.933333333333334,65.33527391975309
27.966666666666665,65.48780478395062
28.0,65.6583738425926
28.03333333333333,65.85592785493827
28.066666666666666,66.0348013117284
28.099999999999998,66.17170331790123
28.133333333333333,66.3313638117284
28.166666666666668,66.4225212191358
28.2,66.47791087962963
28.233333333333334,66.53930169753086
28.266666666666666,66.59426311728394
28.3,66.73844328703704
28.333333333333332,66.8438811728395
28.366666666666667,66.88805169753087
28.4,66.9877700617284
28.433333333333334,67.10430941358025
28.466666666666665,67.24695601851852
28.5,67.30026041666666
28.53333333333333,66.8972762345679
28.566666666666666,65.99528163580247
28.599999999999998,65.41686535493827
28.633333333333333,65.27581018518518
28.666666666666668,65.2764699074074
28.7,65.28238425925926
28.733333333333334,65.27430362654322
28.766666666666666,65.276875
28.8,65.29919753086419
28.833333333333332,65.21044174382716
28.866666666666667,65.17962191358025
28.9,65.17209104938271
28.933333333333334,65.18110725308642
28.966666666666665,65.46434027777778
29.0,65.61720293209876
29.03333333333333,65.67470100308643
29.066666666666666,65.79911072530864
29.099999999999998,66.04356095679012
29.133333333333333,66.15709683641975
29.166666666666668,66.30341820987654
29.2,66.33979166666667
29.233333333333334,66.44139081790124
29.266666666666666,66.51961033950617
29.3,66.66384645061729
29.333333333333332,66.76879436728395
29.366666666666667,66.92771219135803
29.4,66.98233796296296
29.433333333333334,67.06743441358024
29.466666666666665,67.12818287037037
29.5,67.26455054012345
29.53333333333333,67.31406635802469
29.566666666666666,66.87990933641976
29.599999999999998,66.05483217592592
29.633333333333333,65.55294174382716
29.666666666666668,65.48907986111111
29.7,65.48304398148149
29.733333333333334,65.4847299382716
29.766666666666666,65.41773341049382
29.8,65.42185570987654
29.833333333333332,65.42799382716049
29.866666666666667,65.39153356481482
29.9,65.40489969135803
29.933333333333334,65.39157793209877
29.966666666666665,65.42495177469135
30.0,65.61721064814814
30.03333333333333,65.87165702160493
30.066666666666666,65.8949537037037
30.099999999999998,66.01949459876543
30.133333333333333,66.13573688271605
30.166666666666668,66.22579475308642
30.2,66.35498456790124
30.233333333333334,66.45244598765431
30.266666666666666,66.51769675925927
30.3,66.64239197530864
30.333333333333332,66.65736111111111
30.366666666666667,66.80963927469136
30.4,66.88348379629629
30.433333333333334,67.0708024691358
30.466666666666665,67.14913001543209
30.5,67.24373070987654
30.53333333333333,67.31961612654321
30.566666666666666,67.62478973765432
30.599999999999998,67.77155092592592
30.633333333333333,67.78947916666667
30.666666666666668,67.08919174382716
30.7,66.21551504629629
30.733333333333334,65.91959683641976
30.766666666666666,65.94905092592593
30.8,66.09103202160493
30.833333333333332,66.10332175925926
30.866666666666667,66.09197530864198
30.9,66.10631172839506
30.933333333333334,66.09936921296297
30.966666666666665,66.11205632716049
31.0,66.07697337962964
31.03333333333333,66.05652584876543
31.066666666666666,66.02835841049382
31.099999999999998,66.04781057098765
31.133333333333333,66.17415702160494
31.166666666666668,66.24780285493827
31.2,66.27190972222222
31.233333333333334,66.34773341049383
31.266666666666666,66.39553047839506
31.3,66.44946180555556
31.333333333333332,66.5102237654321
31.366666666666667,66.68244984567902
31.4,66.76581597222223
31.433333333333334,66.8625
31.466666666666665,66.9829726080247
31.5,67.15871141975309
31.53333333333333,67.28514853395062
31.566666666666666,67.34543016975309
31.599999999999998,67.31282986111111
31.633333333333333,67.42432484567901
31.666666666666668,67.51261959876543
31.7,67.51753472222222
31.733333333333334,66.93612075617284
31.766666666666666,66.13052276234568
31.8,65.69134645061729
31.833333333333332,65.68187114197531
31.866666666666667,65.82870177469135
31.9,65.88063850308642
31.933333333333334,65.89673032407407
31.966666666666665,65.92146604938272
32.0,65.93227237654321
32.03333333333333,65.94996334876544
32.06666666666666,65.93733989197531
32.1,65.95007908950618
32.13333333333333,65.99648148148148
32.166666666666664,66.17420524691359
32.2,66.28543788580247
32.233333333333334,66.3616300154321
32.266666666666666,66.45670331790123
32.3,66.57973572530864
32.333333333333336,66.61168402777778
32.36666666666667,66.64718557098766
32.4,66.69039351851852
32.43333333333333,66.7844000771605
32.46666666666667,66.8556963734568
32.5,66.96721450617284
32.53333333333333,67.0752025462963
32.56666666666666,67.12356867283951
32.6,67.18024691358025
32.63333333333333,67.21884452160494
32.666666666666664,67.26980902777778
32.7,67.3947800925926
32.733333333333334,67.43795524691357
32.766666666666666,67.3606462191358
32.8,66.62506944444445
32.833333333333336,65.95990354938272
32.86666666666667,65.72158757716049
32.9,65.7234375
32.93333333333333,65.80022955246913
32.96666666666667,65.82020833333333
33.0,65.85651813271605
33.03333333333333,65.89939236111111
33.06666666666666,65.89142554012345
33.1,65.8377025462963
33.13333333333333,65.7790837191358
33.166666666666664,65.75541859567902
33.2,65.73390432098765
33.233333333333334,65.77496720679012
33.266666666666666,65.87965470679012
33.3,66.01544560185185
33.333333333333336,66.10804591049383
33.36666666666667,66.22541087962964
33.4,66.32833526234568
33.43333333333333,66.44108989197531
33.46666666666667,66.46364390432099
33.5,66.47361689814815
33.53333333333333,66.4686400462963
33.56666666666666,66.48257908950617
33.6,66.64043595679013
33.63333333333333,66.7903375771605
33.666666666666664,66.79693094135803
33.7,66.82650270061728
33.733333333333334,66.84133680555556
33.766666666666666,66.98831404320988
33.8,66.9773649691358
33.833333333333336,66.35690007716049
33.86666666666667,65.5953587962963
33.9,65.2025173611111
33.93333333333333,65.24255401234568
33.96666666666667,65.42685570987655
34.0,65.56831018518518
34.03333333333333,65.64702932098766
34.06666666666666,65.66305169753086
34.1,65.67240162037037
34.13333333333333,65.63929591049383
34.166666666666664,65.60455054012345
34.2,65.62720486111111
34.233333333333334,65.69182098765432
34.266666666666666,65.80241705246914
34.3,66.03559799382717
34.333333333333336,66.07526041666667
34.36666666666667,66.09089506172839
34.4,66.14465470679012
34.43333333333333,66.18745563271605
34.46666666666667,66.25656057098766
34.5,66.34081790123457
34.53333333333333,66.43945216049383
34.56666666666666,66.57325038580247
34.6,66.67907793209876
34.63333333333333,66.78266975308642
34.666666666666664,66.86391975308642
34.7,67.01751736111112
34.733333333333334,67.14965470679013
34.766666666666666,67.11452353395062
34.8,66.4291550925926
34.833333333333336,65.65223186728394
34.86666666666667,65.26846450617283
34.9,65.20613425925926
34.93333333333333,65.26981095679012
34.96666666666667,65.3637538580247
35.0,65.44840084876543
35.03333333333333,65.45599344135802
35.06666666666666,65.45215856481481
35.1,65.40861689814815
35.13333333333333,65.36538387345679
35.166666666666664,65.36300540123457
35.2,65.38248070987655
35.233333333333334,65.61450038580247
35.266666666666666,65.76165895061729
35.3,65.87587962962964
35.333333333333336,65.93579668209877
35.36666666666667,66.00588734567901
35.4,66.04761766975308
35.43333333333333,66.13714506172839
35.46666666666667,66.2814525462963
35.5,66.40757523148149
35.53333333333333,66.54710069444444
35.56666666666666,66.63022376543209
35.6,66.70737075617284
35.63333333333333,66.8013850308642
35.666666666666664,66.8524112654321
35.7,66.40954475308642
35.733333333333334,65.58064236111112
35.766666666666666,65.02702353395061
35.8,65.01011959876543
35.833333333333336,65.11021026234567
35.86666666666667,65.2577025462963
35.9,65.35622299382716
35.93333333333333,65.40478202160494
35.96666666666667,65.41579282407407
36.0,65.40283564814816
36.03333333333333,65.36429012345678
36.06666666666666,65.34653935185185
36.1,65.39030092592593
36.13333333333333,65.40842785493827
36.166666666666664,65.63262152777777
36.2,65.78029706790123
36.233333333333334,65.88548804012346
36.266666666666666,65.96445216049382
36.3,66.00175733024692
36.333333333333336,66.09442129629629
36.36666666666667,66.18110725308642
36.4,66.28048611111112
36.43333333333333,66.37113040123457
36.46666666666667,66.55163580246914
36.5,66.74754243827161
36.53333333333333,66.80018325617284
36.56666666666666,66.9247762345679
36.6,66.97192901234568
36.63333333333333,66.61988425925927
36.666666666666664,65.77205439814814
36.7,65.0998186728395
36.733333333333334,64.90137345679013
36.766666666666666,64.99635030864198
36.8,65.07056327160494
36.833333333333336,65.07818287037037
36.86666666666667,65.08084104938271
36.9,65.11657021604938
36.93333333333333,65.12664930555556
36.96666666666667,65.15341820987655
37.0,65.15100887345679
37.03333333333333,65.19438850308642
37.06666666666666,65.36996913580246
37.1,65.60175540123457
37.13333333333333,65.79255401234568
37.166666666666664,65.93523919753086
37.2,66.04228009259259
37.233333333333334,66.1749074074074
37.266666666666666,66.25546682098765
37.3,66.3330362654321
37.333333333333336,66.37242669753087
37.36666666666667,66.54670331790123
37.4,66.70858796296297
37.43333333333333,66.83447530864197
37.46666666666667,66.93603973765433
37.5,67.06498263888889
37.53333333333333,67.1318325617284
37.56666666666666,67.23408950617284
37.6,67.25487654320987
37.63333333333333,67.04309027777778
37.666666666666664,66.2922125771605
37.7,65.69086805555555
37.733333333333334,65.6025675154321
37.766666666666666,65.62253665123457
37.8,65.65949074074074
37.833333333333336,65.67070987654321
37.86666666666667,65.67864583333333
37.9,65.69668788580248
37.93333333333333,65.70588927469136
37.96666666666667,65.71229166666667
38.0,65.71867091049383
38.03333333333333,65.8281288580247
38.06666666666666,65.94775655864197
38.1,66.01185956790124
38.13333333333333,66.07655092592593
38.166666666666664,66.1125212191358
38.2,66.20337770061728
38.233333333333334,66.24157793209876
38.266666666666666,66.26432291666667
38.3,66.3519598765432
38.333333333333336,66.42842592592592
38.36666666666667,66.49692322530865
38.4,66.58369405864198
38.43333333333333,66.72956983024692
38.46666666666667,66.85894868827161
38.5,66.95189043209876
38.53333333333333,66.96312692901235
38.56666666666666,67.05244020061728
38.6,67.16473379629629
38.63333333333333,67.24236882716049
38.666666666666664,67.19338734567901
38.7,66.59620563271605
38.733333333333334,65.88031057098766
38.766666666666666,65.56335841049383
38.8,65.62359567901234
38.833333333333336,65.68199266975309
38.86666666666667,65.69107445987655
38.9,65.71854552469136
38.93333333333333,65.74177469135803
38.96666666666667,65.76414158950617
39.0,65.78260416666667
39.03333333333333,65.79503086419753
39.06666666666666,65.77020254629629
39.1,65.84374228395062
39.13333333333333,65.97725694444445
39.166666666666664,66.07194058641976
39.2,66.13874421296296
39.233333333333334,66.20911458333333
39.266666666666666,66.29881172839507
39.3,66.39831790123456
39.333333333333336,66.4846026234568
39.36666666666667,66.5708236882716
39.4,66.63638695987655
39.43333333333333,66.7323823302469
39.46666666666667,66.86869212962964
39.5,66.97409336419753
39.53333333333333,67.04679012345679
39.56666666666666,67.09587577160494
39.6,67.17440972222222
39.63333333333333,67.26669753086419
39.666666666666664,67.35754822530865
39.7,67.26274691358024
39.733333333333334,66.66614390432099
39.766666666666666,66.03826774691358
39.8,65.77460455246914
39.833333333333336,65.80631172839506
39.86666666666667,65.90571952160494
39.9,65.94471064814815
39.93333333333333,65.98377314814815
39.96666666666667,65.96961419753086
40.0,65.97534143518519
40.03333333333333,65.92366512345679
40.06666666666666,65.89508101851852
40.1,65.85786651234568
40.13333333333333,65.78913966049383
40.166666666666664,65.8263811728395
40.2,65.96367669753086
40.233333333333334,66.08690779320987
40.266666666666666,66.18630787037037
40.3,66.26436149691358
40.333333333333336,66.34089891975309
40.36666666666667,66.44850887345679
40.4,66.48832947530865
40.43333333333333,66.5846450617284
40.46666666666667,66.71925540123456
40.5,66.78607060185185
40.53333333333333,66.78338348765432
40.56666666666666,66.92779899691358
40.6,67.00538966049383
40.63333333333333,67.09362654320988
40.666666666666664,67.14485146604939
40.7,67.23771797839507
40.733333333333334,67.1679475308642
40.766666666666666,66.47630594135802
40.8,65.84930941358024
40.833333333333336,65.68630015432099
40.86666666666667,65.75899884259259
40.9,65.8702411265432
40.93333333333333,65.91391782407408
40.96666666666667,65.85964699074074
41.0,65.84708333333333
41.03333333333333,65.83500578703703
41.06666666666666,65.78497106481481
41.1,65.79445794753086
41.13333333333333,65.79145833333334
41.166666666666664,65.83298225308641
41.2,65.87607445987655
41.233333333333334,66.03253665123457
41.266666666666666,66.11032214506173
41.3,66.17214699074074
41.333333333333336,66.19378472222222
41.36666666666667,66.23646797839505
41.4,66.23273726851852
41.43333333333333,65.97704861111112
41.46666666666667,65.97172067901235
41.5,66.01854166666666
41.53333333333333,66.09550925925926
41.56666666666666,66.22777199074073
41.6,66.31005208333333
41.63333333333333,66.4356423611111
41.666666666666664,66.5175424382716
41.7,66.60543595679012
41.733333333333334,66.65429398148149
41.766666666666666,66.58146797839507
41.8,65.97333719135803
41.833333333333336,65.389375
41.86666666666667,65.23333333333333
41.9,65.25842785493828
41.93333333333333,65.35027970679012
41.96666666666667,65.3803125
42.0,65.38934027777778
42.03333333333333,65.42896604938272
42.06666666666666,65.44077932098766
42.1,65.45505787037037
42.13333333333333,65.44625964506173
42.166666666666664,65.44443094135802
42.2,65.46373842592592
42.233333333333334,65.5628761574074
42.266666666666666,65.76499421296296
42.3,65.80381172839506
42.333333333333336,65.83720100308642
42.36666666666667,65.85417824074074
42.4,65.89497299382717
42.43333333333333,65.93359375
42.46666666666667,65.96630787037037
42.5,66.02129436728396
42.53333333333333,66.0716936728395
42.56666666666666,66.28235339506173
42.6,66.39636959876543
42.63333333333333,66.49320601851852
42.666666666666664,66.52079475308642
42.7,66.11185763888889
42.733333333333334,65.504268904321
42.766666666666666,65.05018132716049
42.8,64.75037037037038
42.833333333333336,64.81290702160494
42.86666666666667,64.94475694444445
42.9,65.06926890432099
42.93333333333333,65.14375964506173
42.96666666666667,65.17572145061729
43.0,65.17908757716049
43.03333333333333,65.1686111111111
43.06666666666666,65.20507330246913
43.1,65.30047839506173
43.13333333333333,65.43363811728395
43.166666666666664,65.66348379629629
43.2,65.78234182098765
43.233333333333334,65.92663580246914
43.266666666666666,65.9646412037037
43.3,66.02462191358025
43.333333333333336,66.09588734567902
43.36666666666667,66.28760030864197
43.4,66.4234375
43.43333333333333,66.53542052469136
43.46666666666667,66.62055169753087
43.5,66.68951388888888
43.53333333333333,66.68892939814815
43.56666666666666,66.16739776234567
43.6,65.57705825617283
43.63333333333333,65.35335262345679
43.666666666666664,65.39366705246914
43.7,65.52765432098765
43.733333333333334,65.60737847222222
43.766666666666666,65.6091975308642
43.8,65.61891203703703
43.833333333333336,65.61482060185185
43.86666666666667,65.55059413580247
43.9,65.56074266975308
43.93333333333333,65.55201581790124
43.96666666666667,65.5660088734568
44.0,65.71023726851851
44.03333333333333,65.92514081790124
44.06666666666666,66.00788387345679
44.1,66.11967785493827
44.13333333333333,66.18359375
44.166666666666664,66.31407986111111
44.2,66.38620949074074
44.233333333333334,66.44436342592593
44.266666666666666,66.55297260802469
44.3,66.67095679012345
44.333333333333336,66.72708526234568
44.36666666666667,66.82537422839506
44.4,66.86240162037036
44.43333333333333,66.40554012345679
44.46666666666667,65.66828317901235
44.5,65.26870563271605
44.53333333333333,65.2691300154321
44.56666666666666,65.33390432098766
44.6,65.39766396604938
44.63333333333333,65.42466820987654
44.666666666666664,65.45530092592593
44.7,65.45643518518519
44.733333333333334,65.43629243827161
44.766666666666666,65.43614197530864
44.8,65.53337577160494
44.833333333333336,65.76047453703704
44.86666666666667,65.86776234567901
44.9,66.00916666666667
44.93333333333333,66.14078125
44.96666666666667,66.24874228395062
45.0,66.31899691358025
45.03333333333333,66.39713541666667
45.06666666666666,66.44020061728395
45.1,66.54472415123456
45.13333333333333,66.66164351851852
45.166666666666664,66.77007908950617
45.2,66.9226311728395
45.233333333333334,67.07597608024692
45.266666666666666,67.17592013888888
45.3,67.24733410493828
45.333333333333336,67.35005979938272
45.36666666666667,67.34328317901235
45.4,66.78155285493827
45.43333333333333,66.11268325617284
45.46666666666667,65.81211419753086
45.5,65.79353009259259
45.53333333333333,65.87896604938271
45.56666666666666,65.9481037808642
45.6,65.96131944444444
45.63333333333333,65.89802083333333
45.666666666666664,65.89100694444444
45.7,65.90236882716049
45.733333333333334,65.86819637345678
45.766666666666666,65.91104552469136
45.8,66.02959104938272
45.833333333333336,66.15411072530864
45.86666666666667,66.28297067901235
45.9,66.3818325617284
45.93333333333333,66.48947530864197
45.96666666666667,66.56490162037036
46.0,66.62929591049382
46.03333333333333,66.74175540123457
46.06666666666666,66.79686342592592
46.1,66.9218962191358
46.13333333333333,66.94729552469136
46.166666666666664,67.12338541666666
46.2,67.21765625
46.233333333333334,67.34400270061728
46.266666666666666,67.40355324074073
46.3,67.52952546296297
46.333333333333336,67.60981867283951
46.36666666666667,67.66678047839507
46.4,67.7274112654321
46.43333333333333,67.52319830246914
46.46666666666667,66.89087770061728
46.5,66.37531442901235
46.53333333333333,66.28920717592592
46.56666666666666,66.27453703703704
46.6,66.31853780864198
46.63333333333333,66.31128665123457
46.666666666666664,66.29121913580246
46.7,66.31387152777778
46.733333333333334,66.3238811728395
46.766666666666666,66.34529320987654
46.8,66.34570023148149
46.833333333333336,66.41511959876543
46.86666666666667,66.53386959876543
46.9,66.63838348765432
46.93333333333333,66.67170717592593
46.96666666666667,66.7828587962963
47.0,66.89811728395061
47.03333333333333,66.95251543209876
47.06666666666666,66.98018711419753
47.1,67.0900713734568
47.13333333333333,67.14832561728394
47.166666666666664,67.22547260802469
47.2,67.24870949074074
47.233333333333334,67.42143711419753
47.266666666666666,67.51314236111111
47.3,67.64421682098765
47.333333333333336,67.66191936728396
47.36666666666667,67.75016010802469
47.4,67.81470486111111
47.43333333333333,67.88501929012345
47.46666666666667,67.94054976851852
47.5,67.80724729938271
47.53333333333333,67.14380787037037
47.56666666666666,66.50395447530865
47.6,66.33909529320988
47.63333333333333,66.38111496913581
47.666666666666664,66.59284915123457
47.7,66.61370563271605
47.733333333333334,66.55855324074074
47.766666666666666,66.57161072530864
47.8,66.54530092592593
47.833333333333336,66.53517939814814
47.86666666666667,66.49417438271605
47.9,66.48814043209876
47.93333333333333,66.48279899691359
47.96666666666667,66.66010223765431
48.0,66.7740200617284
48.03333333333333,66.82702546296296
48.06666666666666,66.89439814814814
48.1,66.93252700617283
48.13333333333333,67.01174189814814
48.166666666666664,67.13750578703704
48.2,67.24377507716049
48.233333333333334,67.30330439814814
48.266666666666666,67.40659529320988
48.3,67.59822723765433
48.333333333333336,67.6912712191358
48.36666666666667,67.78298611111111
48.4,67.84029899691357
48.43333333333333,67.8838387345679
48.46666666666667,67.88890432098765
48.5,67.91352044753087
48.53333333333333,67.65986689814815
48.56666666666666,66.97811535493827
48.6,66.46201388888889
48.63333333333333,66.38490162037037
48.666666666666664,66.43621720679012
48.7,66.42537808641976
48.733333333333334,66.44528742283951
48.766666666666666,66.4794675925926
48.8,66.4825925925926
48.833333333333336,66.48790702160494
48.86666666666667,66.45678819444444
48.9,66.44136574074074
48.93333333333333,66.42521604938271
48.96666666666667,66.4184413580247
49.0,66.46680555555555
49.03333333333333,66.57848186728395
49.06666666666666,66.68906828703703
49.1,66.78519290123457
49.13333333333333,66.83519675925926
49.166666666666664,66.8823398919753
49.2,66.96365740740741
49.233333333333334,67.10778549382717
49.266666666666666,67.2252951388889
49.3,67.27904706790123
49.333333333333336,67.36641975308642
49.36666666666667,67.48192515432099
49.4,67.56791859567902
49.43333333333333,67.67600308641975
49.46666666666667,67.73573688271605
49.5,67.77077353395062
49.53333333333333,67.66250578703703
49.56666666666666,66.9737037037037
49.6,66.32490547839507
49.63333333333333,65.99056327160494
49.666666666666664,65.99346836419753
49.7,66.06150462962962
49.733333333333334,66.11755979938272
49.766666666666666,66.15464506172839
49.8,66.17619598765432
49.833333333333336,66.18800347222222
49.86666666666667,66.1841300154321
49.9,66.19549189814815
49.93333333333333,66.20507716049383
49.96666666666667,66.23228202160495
50.0,66.24239390432099
50.03333333333333,66.39895833333334
50.06666666666666,66.47696180555556
50.1,66.52572337962962
50.13333333333333,66.56933063271605
50.166666666666664,66.6354475308642
50.2,66.67570794753087
50.233333333333334,66.71533179012346
50.266666666666666,66.78560570987655
50.3,66.87079282407407
50.333333333333336,66.98925733024691
50.36666666666667,67.09462962962964
50.4,67.16792824074074
50.43333333333333,67.27779320987655
50.46666666666667,67.37277970679013
50.5,67.47111689814815
50.53333333333333,67.45109375
50.56666666666666,66.88713348765432
50.6,66.10782600308642
50.63333333333333,65.74838155864198
50.666666666666664,65.75762538580247
50.7,65.76333912037038
50.733333333333334,65.84654899691358
50.766666666666666,65.9041049382716
50.8,65.92476658950618
50.833333333333336,65.91777584876543
50.86666666666667,65.85072530864197
50.9,65.7769637345679
50.93333333333333,65.7289911265432
50.96666666666667,65.77962770061728
51.0,65.82226658950617
51.03333333333333,65.93616705246913
51.06666666666666,66.1102488425926
51.1,66.22193672839506
51.13333333333333,66.28425733024692
51.166666666666664,66.33454668209876
51.2,66.44853973765431
51.233333333333334,66.50960648148148
51.266666666666666,66.54784529320987
51.3,66.62012538580247
51.333333333333336,66.69053047839506
51.36666666666667,66.82824845679012
51.4,66.93642554012345
51.43333333333333,66.98040509259259
51.46666666666667,67.05884645061728
51.5,67.04203896604939
51.53333333333333,66.5860050154321
51.56666666666666,65.83255015432098
51.6,65.37234182098766
51.63333333333333,65.35689236111111
51.666666666666664,65.43302276234567
51.699999999999996,65.63785300925926
51.733333333333334,65.75245177469135
51.766666666666666,65.77593942901234
51.8,65.77453317901235
51.833333333333336,65.71525848765432
51.86666666666667,65.63949459876544
51.9,65.64327932098766
51.93333333333333,65.65041859567901
51.96666666666667,65.71247299382716
52.0,65.84576581790124
52.03333333333333,65.97636766975309
52.06666666666666,66.04029706790124
52.1,66.13512731481481
52.13333333333333,66.2137287808642
52.166666666666664,66.28762152777777
52.199999999999996,66.3457137345679
52.233333333333334,66.42584490740741
52.266666666666666,66.51441358024691
52.3,66.7004938271605
52.333333333333336,66.81656442901235
52.36666666666667,66.89793788580246
52.4,66.86891203703703
52.43333333333333,66.46109567901235
52.46666666666667,65.72056134259259
52.5,65.1917824074074
52.53333333333333,65.15360725308642
52.56666666666666,65.28222029320987
52.6,65.52219328703704
52.63333333333333,65.64013888888888
52.666666666666664,65.69444444444444
52.699999999999996,65.6773900462963
52.733333333333334,65.6519675925926
52.766666666666666,65.60288387345679
52.8,65.56210648148148
52.833333333333336,65.60708526234568
52.86666666666667,65.79338155864197
52.9,65.9730536265432
52.93333333333333,66.0804224537037
52.96666666666667,66.2079436728395
53.0,66.28097029320988
53.03333333333333,66.36168209876543
53.06666666666666,66.48598572530864
53.1,66.54811342592592
53.13333333333333,66.6171913580247
53.166666666666664,66.73663966049382
53.199999999999996,66.83884645061728
53.233333333333334,66.99360146604938
53.266666666666666,67.05336998456791
53.3,66.73330246913581
53.333333333333336,65.95245370370371
53.36666666666667,65.25728202160494
53.4,65.14563850308642
53.43333333333333,65.20722222222223
53.46666666666667,65.40096450617284
53.5,65.48041473765431
53.53333333333333,65.5403587962963
53.56666666666666,65.55934413580248
53.6,65.54943672839507
53.63333333333333,65.53691936728396
53.666666666666664,65.50472222222223
53.699999999999996,65.53838155864197
53.733333333333334,65.61887345679013
53.766666666666666,65.86439236111111
53.8,65.99466242283951
53.833333333333336,66.09045910493828
53.86666666666667,66.20351466049382
53.9,66.30638310185185
53.93333333333333,66.41126157407408
53.96666666666667,66.48764467592592
54.0,66.61069444444445
54.03333333333333,66.72908950617284
54.06666666666666,66.75328896604938
54.1,66.88880787037037
54.13333333333333,66.96936921296296
54.166666666666664,67.0841300154321
54.199999999999996,67.20782214506173
54.233333333333334,67.25809413580247
54.266666666666666,66.61413773148148
54.3,65.64743441358024
54.333333333333336,65.03843942901234
54.36666666666667,64.9971199845679
54.4,65.09874614197531
54.43333333333333,65.19298804012345
54.46666666666667,65.23468171296297
54.5,65.27992669753087
54.53333333333333,65.27584104938272
54.56666666666666,65.30529706790124
54.6,65.33346836419753
54.63333333333333,65.35413966049383
54.666666666666664,65.40251736111111
54.699999999999996,65.68218942901234
54.733333333333334,65.82904513888889
54.766666666666666,65.95862461419753
54.8,66.09849151234567
54.833333333333336,66.23373842592592
54.86666666666667,66.33267168209876
54.9,66.38530285493827
54.93333333333333,66.48005979938272
54.96666666666667,66.6378761574074
55.0,66.72840277777777
55.03333333333333,66.86162422839506
55.06666666666666,67.00064814814814
55.1,67.16933449074074
55.13333333333333,67.22487847222222
55.166666666666664,67.35474537037037
55.199999999999996,67.46669560185185
55.233333333333334,67.60051697530864
55.266666666666666,67.72157986111111
55.3,67.50472029320987
55.333333333333336,66.43290123456791
55.36666666666667,65.54994598765433
55.4,65.21786458333334
55.43333333333333,65.22935763888889
55.46666666666667,65.33704475308642
55.5,65.36086226851852
55.53333333333333,65.3991936728395
55.56666666666666,65.43986304012346
55.6,65.4416300154321
55.63333333333333,65.44833140432098
55.666666666666664,65.43904513888889
55.699999999999996,65.47307484567901
55.733333333333334,65.54803819444444
55.766666666666666,65.8057851080247
55.8,65.96756944444445
55.833333333333336,66.12971257716049
55.86666666666667,66.28162422839506
55.9,66.3943788580247
55.93333333333333,66.47573688271605
55.96666666666667,66.54121720679012
56.0,66.58815779320987
56.03333333333333,66.72830825617284
56.06666666666666,66.80899305555556
56.1,66.96265432098765
56.13333333333333,67.08761381172839
56.166666666666664,67.27991898148149
56.199999999999996,67.37797067901235
56.233333333333334,67.43310185185184
56.266666666666666,67.51319058641975
56.3,67.67100694444444
56.333333333333336,67.84672453703703
56.36666666666667,67.83446759259259
56.4,67.0267013888889
56.43333333333333,65.92127314814815
56.46666666666667,65.25768518518518
56.5,65.22249228395061
56.53333333333333,65.29210648148148
56.56666666666666,65.36750192901235
56.6,65.43036458333333
56.63333333333333,65.46326581790123
56.666666666666664,65.53274305555556
56.699999999999996,65.54103202160493
56.733333333333334,65.54027006172839
56.766666666666666,65.55375964506173
56.8,65.58830054012346
56.833333333333336,65.87094328703704
56.86666666666667,65.97695408950618
56.9,66.18366319444445
56.93333333333333,66.30452932098765
56.96666666666667,66.40817708333333
57.0,66.43278549382715
57.03333333333333,66.5429648919753
57.06666666666666,66.58577739197531
57.1,66.71158564814814
57.13333333333333,66.80226466049383
57.166666666666664,66.97389081790124
57.199999999999996,67.08727044753087
57.233333333333334,67.2139949845679
57.266666666666666,67.28388310185186
57.3,67.40063850308643
57.333333333333336,67.52737847222222
57.36666666666667,67.64697337962963
57.4,67.53968364197532
57.43333333333333,66.49311535493827
57.46666666666667,65.49610339506172
57.5,65.1239949845679
57.53333333333333,65.13165702160494
57.56666666666666,65.22152391975308
57.6,65.31457561728395
57.63333333333333,65.42962191358025
57.666666666666664,65.46242862654321
57.699999999999996,65.4768962191358
57.733333333333334,65.44918595679012
57.766666666666666,65.37056327160494
57.8,65.39884452160494
57.833333333333336,65.47868055555556
57.86666666666667,65.66133680555555
57.9,65.84019483024692
57.93333333333333,65.97572530864197
57.96666666666667,66.09163580246914
58.0,66.16711033950617
58.03333333333333,66.2421875
58.06666666666666,66.30605324074074
58.1,66.41579861111111
58.13333333333333,66.47212191358025
58.166666666666664,66.67137152777778
58.199999999999996,66.84617476851852
58.233333333333334,66.96161651234569
58.266666666666666,67.03221064814815
58.3,67.14532600308642
58.333333333333336,67.30694830246914
58.36666666666667,67.32583526234568
58.4,66.55290895061728
58.43333333333333,65.53793595679012
58.46666666666667,65.05758294753086
58.5,65.01814236111112
58.53333333333333,65.14702932098766
58.56666666666666,65.29833333333333
58.6,65.39594907407407
58.63333333333333,65.4248688271605
58.666666666666664,65.44250964506173
58.699999999999996,65.35506365740741
58.733333333333334,65.3032137345679
58.766666666666666,65.3166724537037
58.8,65.33513888888889
58.833333333333336,65.62415509259259
58.86666666666667,65.77533564814814
58.9,65.90232445987654
58.93333333333333,65.99641589506173
58.96666666666667,66.15497299382716
59.0,66.21688657407407
59.03333333333333,66.27439621913581
59.06666666666666,66.35065972222222
59.1,66.45253279320988
59.13333333333333,66.61173804012346
59.166666666666664,66.71503279320987
59.199999999999996,66.82385416666666
59.233333333333334,66.95562114197531
59.266666666666666,67.01220293209876
59.3,66.69767361111111
59.333333333333336,65.84421296296296
59.36666666666667,65.14252314814814
59.4,65.04277584876543
59.43333333333333,65.17103202160494
59.46666666666667,65.45806520061728
59.5,65.57617091049383
59.53333333333333,65.69953896604939
59.56666666666666,65.68034336419753
59.6,65.60151427469135
59.63333333333333,65.48535108024691
59.666666666666664,65.44387731481481
59.699999999999996,65.47220679012345
59.733333333333334,65.5966300154321
59.766666666666666,65.76695023148149
59.8,65.8320138888889
59.833333333333336,65.91612075617284
59.86666666666667,65.9968287037037
59.9,66.07293981481482
59.93333333333333,66.14060570987654
59.96666666666667,66.20355516975309
60.0,66.29256558641976
60.03333333333333,66.44404320987654
60.06666666666666,66.45043981481481
60.1,66.51096450617284
60.13333333333333,66.53370563271605
60.166666666666664,65.9560262345679
60.199999999999996,65.19913194444445
60.233333333333334,64.81293788580247
60.266666666666666,64.82199652777778
60.3,64.97297260802469
60.333333333333336,65.13774305555556
60.36666666666667,65.23200424382716
60.4,65.28293595679013
60.43333333333333,65.26858989197531
60.46666666666667,65.24467013888889
60.5,65.2239236111111
60.53333333333333,65.21730709876543
60.56666666666666,65.28347222222222
60.6,65.50048418209876
60.63333333333333,65.5956674382716
60.666666666666664,65.64829089506173
60.699999999999996,65.75268518518519
60.733333333333334,65.81322337962963
60.766666666666666,65.8668287037037
60.8,65.94258294753087
60.833333333333336,66.26811342592593
